Date,Open,High,Low,Close,Volume,Dividends,Stock Splits
2022-01-03 00:00:00-05:00,117.7417776425436,118.28028717137072,114.71264686960691,116.1839370727539,234900,0.0,0.0
2022-01-04 00:00:00-05:00,116.35702650721244,118.20335111744194,115.35693217584434,116.72244262695312,337300,0.0,0.0
2022-01-05 00:00:00-05:00,116.58784142721377,119.37656564360445,116.58784142721377,118.33800506591797,367600,0.0,0.0
2022-01-06 00:00:00-05:00,118.79957476985176,119.24192295849423,117.3282844749525,117.84756469726562,231900,0.0,0.0
2022-01-07 00:00:00-05:00,118.01103412219994,119.03997617924534,117.28981284847721,118.93419647216797,335100,0.0,0.0
2022-01-10 00:00:00-05:00,118.23218928382384,119.13612217799371,117.0109246460048,117.36672973632812,398400,0.0,0.0
2022-01-11 00:00:00-05:00,117.58790633261613,118.26105053877625,116.09738688249904,117.81869506835938,135500,0.0,0.0
2022-01-12 00:00:00-05:00,117.62638077094364,118.28028834959407,115.99161549263863,116.64552307128906,206600,0.0,0.0
2022-01-13 00:00:00-05:00,117.00131225585938,117.63599044869738,115.75119988113974,117.00131225585938,193200,0.0,0.0
2022-01-14 00:00:00-05:00,116.62628221489045,116.8282232829733,115.27039009015085,116.53012084960938,179000,0.0,0.0
2022-01-18 00:00:00-05:00,115.98199419071385,116.74168145654316,114.27029692651394,115.75120544433594,232500,0.0,0.0
2022-01-19 00:00:00-05:00,116.12624673954012,117.22250252012462,115.87622130321522,116.76091766357422,252600,0.0,0.0
2022-01-20 00:00:00-05:00,116.1839324779775,117.61675661002346,114.25105751467459,114.27029418945312,297700,0.0,0.0
2022-01-21 00:00:00-05:00,114.64532720068591,115.4627097890764,111.38540784775036,111.91429901123047,351800,0.0,0.0
2022-01-24 00:00:00-05:00,111.15461293101922,112.75091944863918,109.65447511379894,112.53936004638672,329300,0.0,0.0
2022-01-25 00:00:00-05:00,110.31801265760417,112.45282890725068,108.76017198813827,111.57774353027344,470000,0.0,0.0
2022-01-26 00:00:00-05:00,111.33732330039199,113.03940949838646,110.01989722602293,110.76996612548828,1542500,0.0,0.0
2022-01-27 00:00:00-05:00,111.33732822660114,113.76063575617066,108.34666349702474,109.2890625,263900,0.0,0.0
2022-01-28 00:00:00-05:00,109.46215768903576,110.68342247487148,108.13510586030733,110.63534545898438,323100,0.0,0.0
2022-01-31 00:00:00-05:00,110.59686641221383,112.83745464520076,109.84679755565121,112.79899597167969,486300,0.0,0.0
2022-02-01 00:00:00-05:00,112.59705750622794,114.36645744640926,111.98161596268015,112.97209930419922,214000,0.0,0.0
2022-02-02 00:00:00-05:00,112.58619226141757,112.89491161109375,111.9205205339454,112.50901794433594,363600,0.38,0.0
2022-02-03 00:00:00-05:00,112.33536114021501,113.2422200758321,110.85929654202943,111.12942504882812,167700,0.0,0.0
2022-02-04 00:00:00-05:00,110.6374119108362,111.93982154514796,109.65337120237525,111.19696807861328,242700,0.0,0.0
2022-02-07 00:00:00-05:00,111.54426568873583,111.9398088933551,110.2997387778026,110.69528198242188,263300,0.0,0.0
2022-02-08 00:00:00-05:00,110.94612477389578,112.3353655611912,110.69528799608965,111.95911407470703,204200,0.0,0.0
2022-02-09 00:00:00-05:00,112.95280592601063,113.51236206912023,112.10382216116841,112.44149017333984,295900,0.0,0.0
2022-02-10 00:00:00-05:00,111.44777996065152,113.11679865055376,109.65335393490857,110.56986236572266,267100,0.0,0.0
2022-02-11 00:00:00-05:00,110.98470923620984,112.33535910619734,108.89120598597648,109.70159149169922,230600,0.0,0.0
2022-02-14 00:00:00-05:00,109.70159124837282,110.47339327535367,108.47636344302407,110.07784271240234,266600,0.0,0.0
2022-02-15 00:00:00-05:00,110.61810707546879,112.03628170733793,109.40252145913132,110.07784271240234,263000,0.0,0.0
2022-02-16 00:00:00-05:00,110.22256605678957,111.02330944104061,109.11310330710383,110.65670013427734,271400,0.0,0.0
2022-02-17 00:00:00-05:00,109.94278501710231,112.16171045663877,109.32534630288262,111.53462219238281,362400,0.0,0.0
2022-02-18 00:00:00-05:00,112.18100090372779,117.23628307832412,110.38656736106135,114.26486206054688,462300,0.0,0.0
2022-02-22 00:00:00-05:00,114.32274818353467,115.94352668004836,113.1843441519304,114.90159606933594,437200,0.0,0.0
2022-02-23 00:00:00-05:00,115.51901317348842,116.06891966613925,113.45445143894328,113.5412826538086,321100,0.0,0.0
2022-02-24 00:00:00-05:00,112.17135076836817,113.20363179146504,110.67599439758388,112.75020599365234,349300,0.0,0.0
2022-02-25 00:00:00-05:00,113.02997495037894,117.31345469342202,112.70195652511408,116.7056655883789,260100,0.0,0.0
2022-02-28 00:00:00-05:00,115.2585542148916,117.72830908542254,115.07524956543966,117.5835952758789,316300,0.0,0.0
2022-03-01 00:00:00-05:00,117.6607785974539,118.60623578727447,114.3516894737572,114.90159606933594,325700,0.0,0.0
2022-03-02 00:00:00-05:00,114.89194871424273,115.82775637171864,113.84037589366487,114.20697784423828,435100,0.0,0.0
2022-03-03 00:00:00-05:00,114.68934795342238,115.52868215621915,113.27117323624519,115.12348937988281,196100,0.0,0.0
2022-03-04 00:00:00-05:00,113.88860875249837,116.14611760907553,113.54129856526345,115.95317077636719,206700,0.0,0.0
2022-03-07 00:00:00-05:00,115.10419470029356,116.10753449007566,112.34501211850537,112.41254425048828,337300,0.0,0.0
2022-03-08 00:00:00-05:00,112.83703396810192,114.12015181149354,106.1609731390954,106.3056869506836,382800,0.0,0.0
2022-03-09 00:00:00-05:00,107.26077054604251,110.34796372351421,107.26077054604251,109.27709197998047,224800,0.0,0.0
2022-03-10 00:00:00-05:00,107.88788437373854,109.65337684194783,107.51163284581865,108.30272674560547,223200,0.0,0.0
2022-03-11 00:00:00-05:00,109.3060575309679,109.71125031809136,108.28341865241075,108.34130859375,237100,0.0,0.0
2022-03-14 00:00:00-04:00,108.84296968399359,111.82404758724115,108.79472929522117,110.48303985595703,173800,0.0,0.0
2022-03-15 00:00:00-04:00,111.03295241622659,112.80809430036948,110.06820347236317,112.69232177734375,199500,0.0,0.0
2022-03-16 00:00:00-04:00,113.57024437856666,114.91124479252748,110.32868740886923,112.86597442626953,266800,0.0,0.0
2022-03-17 00:00:00-04:00,113.10715437664373,114.33238955168315,111.20659794323984,114.23591613769531,163300,0.0,0.0
2022-03-18 00:00:00-04:00,113.93684878279872,114.64111875032208,112.17135644925892,113.58953857421875,286800,0.0,0.0
2022-03-21 00:00:00-04:00,113.57988744553309,114.48674637616598,112.55724864055169,114.47710418701172,309100,0.0,0.0
2022-03-22 00:00:00-04:00,115.55762397532759,116.21365353259448,113.22293336522634,113.52200317382812,294100,0.0,0.0
2022-03-23 00:00:00-04:00,113.6474229686031,113.93684322132572,110.01996505630333,110.62775421142578,256800,0.0,0.0
2022-03-24 00:00:00-04:00,110.94613153471481,112.12312645562473,109.98138256484772,111.76616668701172,210100,0.0,0.0
2022-03-25 00:00:00-04:00,112.73091098177747,113.12646157603521,111.9108758634885,113.10716247558594,148000,0.0,0.0
2022-03-28 00:00:00-04:00,113.29046465727251,113.42552891567145,110.95577406443361,112.38359832763672,167300,0.0,0.0
2022-03-29 00:00:00-04:00,113.3676525597173,115.37432480627777,113.3676525597173,115.11384582519531,184700,0.0,0.0
2022-03-30 00:00:00-04:00,115.35503143768635,115.35503143768635,114.07191357011864,114.6314697265625,156600,0.0,0.0
2022-03-31 00:00:00-04:00,114.22626186105263,115.60585296929001,113.32904516324163,113.35798645019531,211200,0.0,0.0
2022-04-01 00:00:00-04:00,113.98509023607878,115.42256411470699,113.15540554790266,114.82441711425781,400800,0.0,0.0
2022-04-04 00:00:00-04:00,114.53498592919249,114.53498592919249,111.13906581740339,114.23591613769531,286300,0.0,0.0
2022-04-05 00:00:00-04:00,113.50269809003179,115.00770386663864,113.44480815677436,113.57987976074219,225300,0.0,0.0
2022-04-06 00:00:00-04:00,113.12645752431791,114.72793686308921,112.24853249657495,114.16838073730469,194300,0.0,0.0
2022-04-07 00:00:00-04:00,113.75354529377849,116.34871480598619,112.51866053027139,115.76986694335938,331900,0.0,0.0
2022-04-08 00:00:00-04:00,115.58656853197814,117.92126656851549,115.58656853197814,117.13017272949219,305300,0.0,0.0
2022-04-11 00:00:00-04:00,116.8600285604649,117.98879033797782,114.76652526855469,114.76652526855469,208000,0.0,0.0
2022-04-12 00:00:00-04:00,115.02702064288923,115.95317875240647,112.29677934560748,112.8852767944336,187400,0.0,0.0
2022-04-13 00:00:00-04:00,112.7694872307655,113.84035899318138,112.7694872307655,113.7245864868164,120200,0.0,0.0
2022-04-14 00:00:00-04:00,113.28081212481268,114.51568951791987,112.8370285216929,113.26152038574219,163300,0.0,0.0
2022-04-18 00:00:00-04:00,112.66337132113506,113.39658251974802,109.57617789610633,109.99102020263672,137100,0.0,0.0
2022-04-19 00:00:00-04:00,110.53128326543148,113.49306214993237,109.50865176746802,113.09751892089844,221600,0.0,0.0
2022-04-20 00:00:00-04:00,113.82107578973465,115.528678064067,113.19398754735957,115.28749084472656,141200,0.0,0.0
2022-04-21 00:00:00-04:00,116.01104916745051,116.10752258032313,114.16837533165025,114.74723052978516,178200,0.0,0.0
2022-04-22 00:00:00-04:00,114.41921662031676,114.41921662031676,112.32571330031105,112.50901794433594,179900,0.0,0.0
2022-04-25 00:00:00-04:00,112.39324592982716,112.39324592982716,108.2255310103666,111.33202362060547,379600,0.0,0.0
2022-04-26 00:00:00-04:00,110.70288050982847,111.65145397595214,106.89889044478087,107.0344009399414,295300,0.38,0.0
2022-04-27 00:00:00-04:00,107.38284614272077,109.36711095422719,107.02470708436275,107.53771209716797,231500,0.0,0.0
2022-04-28 00:00:00-04:00,107.6151462267897,108.64115622818377,106.03741289080882,108.50564575195312,289200,0.0,0.0
2022-04-29 00:00:00-04:00,108.9121719167614,112.71616126656559,108.9121719167614,111.14810943603516,640200,0.0,0.0
2022-05-02 00:00:00-04:00,111.71919707057698,113.21950116992255,108.47661220093725,109.75428771972656,457000,0.0,0.0
2022-05-03 00:00:00-04:00,109.36710556001088,111.67079836621598,109.02832937814745,110.18017578125,225400,0.0,0.0
2022-05-04 00:00:00-04:00,109.72525786376724,113.03559818628545,109.10577923211825,113.00656127929688,346900,0.0,0.0
2022-05-05 00:00:00-04:00,111.78694015624194,112.45481844052527,108.28301613670676,109.18319702148438,179000,0.0,0.0
2022-05-06 00:00:00-04:00,108.10880877617936,108.13784568390282,106.24069140336726,107.66355895996094,331800,0.0,0.0
2022-05-09 00:00:00-04:00,106.47297682199827,107.53770511326489,103.2400736159093,103.57884979248047,276700,0.0,0.0
2022-05-10 00:00:00-04:00,104.11121333570745,105.14690475468782,100.60728908436653,101.18804931640625,411800,0.0,0.0
2022-05-11 00:00:00-04:00,101.04287046057055,103.97571628816179,100.19108916923369,100.72344970703125,297800,0.0,0.0
2022-05-12 00:00:00-04:00,100.39434254297358,103.24007729717643,99.93941135331345,103.03680419921875,389300,0.0,0.0
2022-05-13 00:00:00-04:00,103.56917850987446,104.8178171556516,103.33687587814796,104.06282806396484,226900,0.0,0.0
2022-05-16 00:00:00-04:00,103.84987471206016,104.94363994825231,102.94001233032779,104.85652923583984,202500,0.0,0.0
2022-05-17 00:00:00-04:00,106.59883052934983,106.85049605507871,104.75007588955272,105.46634674072266,311200,0.0,0.0
2022-05-18 00:00:00-04:00,104.52743205185301,105.40825757125037,100.2491556613249,100.73312377929688,325900,0.0,0.0
2022-05-19 00:00:00-04:00,100.07492264013938,101.24612455026691,98.98115739797906,100.17171478271484,357000,0.0,0.0
2022-05-20 00:00:00-04:00,101.61393667342028,101.92367593504734,94.0737134460984,96.52259063720703,796300,0.0,0.0
2022-05-23 00:00:00-04:00,97.71314828247695,101.23643516569697,96.47419123142373,100.87830352783203,545200,0.0,0.0
2022-05-24 00:00:00-04:00,101.14933916865114,102.23343043835301,99.52320595648212,101.58490753173828,567400,0.0,0.0
2022-05-25 00:00:00-04:00,100.16203738545198,101.89463661843538,99.19410122255911,101.1009292602539,493400,0.0,0.0
2022-05-26 00:00:00-04:00,102.31086130259754,103.52078164621751,101.9043298394855,103.11425018310547,188200,0.0,0.0
2022-05-27 00:00:00-04:00,103.53045012742552,105.43728553203222,103.53045012742552,105.39856719970703,178000,0.0,0.0
2022-05-31 00:00:00-04:00,104.61456573914529,105.92127837539644,102.9400325521846,103.65630340576172,306100,0.0,0.0
2022-06-01 00:00:00-04:00,104.04345219986055,104.45966502976667,102.2430904132682,103.81114959716797,313900,0.0,0.0
2022-06-02 00:00:00-04:00,104.14994005394632,106.5020254601185,103.40463238336682,106.30844116210938,145400,0.0,0.0
2022-06-03 00:00:00-04:00,105.2340181095618,106.24067257929818,104.76940551400398,105.31145477294922,139800,0.0,0.0
2022-06-06 00:00:00-04:00,106.07612693604526,107.25701030746563,104.85653261437233,105.74703216552734,207400,0.0,0.0
2022-06-07 00:00:00-04:00,105.15660160180046,106.80209039796124,104.92429895187887,106.64722442626953,132900,0.0,0.0
2022-06-08 00:00:00-04:00,105.46633667646614,105.88254957420574,103.82084794666837,104.25641632080078,157700,0.0,0.0
2022-06-09 00:00:00-04:00,103.34656169787722,104.24674280623857,102.4076696337907,102.43670654296875,193800,0.0,0.0
2022-06-10 00:00:00-04:00,100.25884457446726,102.494775083256,99.82326880492182,101.82689666748047,266800,0.0,0.0
2022-06-13 00:00:00-04:00,99.57159961244251,99.9200572354336,97.80995602277297,98.73917388916016,252100,0.0,0.0
2022-06-14 00:00:00-04:00,98.35200835280136,99.00052390356062,95.23525227512881,96.32901763916016,227900,0.0,0.0
2022-06-15 00:00:00-04:00,97.08401629808809,97.99387142144607,95.38044629928864,97.15177154541016,283300,0.0,0.0
2022-06-16 00:00:00-04:00,95.71921564085466,95.71921564085466,91.01504485201731,91.73131561279297,620400,0.0,0.0
2022-06-17 00:00:00-04:00,91.46028927341104,95.30299716070294,91.4506152284642,94.373779296875,458500,0.0,0.0
2022-06-21 00:00:00-04:00,94.83839333326725,95.53530120293945,93.9769233103088,94.07372283935547,236100,0.0,0.0
2022-06-22 00:00:00-04:00,93.28002567222966,95.6708221757161,93.15418922457327,95.30300903320312,228200,0.0,0.0
2022-06-23 00:00:00-04:00,95.45786148163342,96.13541380227747,94.05434969634727,95.75791931152344,152100,0.0,0.0
2022-06-24 00:00:00-04:00,96.84202450103547,99.35865726718576,96.47420400079217,99.32962036132812,327300,0.0,0.0
2022-06-27 00:00:00-04:00,99.32962424953357,100.81056558438327,98.7198196635829,100.24916076660156,185200,0.0,0.0
2022-06-28 00:00:00-04:00,100.8783028545173,101.02349474838618,98.71012802964572,99.40703582763672,280200,0.0,0.0
2022-06-29 00:00:00-04:00,99.19411013638518,100.55889640862841,98.0906560175427,100.0749282836914,220900,0.0,0.0
2022-06-30 00:00:00-04:00,99.0489145906363,100.18139818912574,98.11969671099618,99.90069580078125,205900,0.0,0.0
2022-07-01 00:00:00-04:00,100.02652036392473,101.31387724366627,98.88436277154985,101.1396484375,262300,0.0,0.0
2022-07-05 00:00:00-04:00,100.02652656184297,100.02652656184297,97.73252242073897,99.6199951171875,230200,0.0,0.0
2022-07-06 00:00:00-04:00,100.21043880719826,100.22980166767316,98.25521083098359,99.3489761352539,286400,0.0,0.0
2022-07-07 00:00:00-04:00,99.16507539999627,99.98782719947332,98.58431507107055,99.80391693115234,221200,0.0,0.0
2022-07-08 00:00:00-04:00,99.4360865283213,99.72646295002325,96.7936175207085,96.80329895019531,208100,0.0,0.0
2022-07-11 00:00:00-04:00,96.6097208680465,96.90978614619273,95.31268975558885,96.35806274414062,186900,0.0,0.0
2022-07-12 00:00:00-04:00,96.28062260791725,98.58430828754024,96.03863853878497,97.28727722167969,284300,0.0,0.0
2022-07-13 00:00:00-04:00,96.53227607757243,98.06160959147749,96.31932894171094,97.44213104248047,202500,0.0,0.0
2022-07-14 00:00:00-04:00,96.38710223064585,96.70652299426597,95.18685585548567,96.11608123779297,199800,0.0,0.0
2022-07-15 00:00:00-04:00,97.5776434595008,97.5776434595008,96.02894705612286,96.80329895019531,195300,0.0,0.0
2022-07-18 00:00:00-04:00,97.34533212884443,97.71314518397288,94.56735289622542,94.95452880859375,179900,0.0,0.0
2022-07-19 00:00:00-04:00,95.39012573860374,97.84867745282509,95.39012573860374,97.79060363769531,635400,0.0,0.0
2022-07-20 00:00:00-04:00,97.44214672795364,99.19411647379911,97.43247268186946,98.5552749633789,458900,0.0,0.0
2022-07-21 00:00:00-04:00,98.6423811796512,100.27818832760123,98.32296046294894,100.16204071044922,138900,0.0,0.0
2022-07-22 00:00:00-04:00,100.28787204269864,100.64601110153538,99.0489148663958,100.27819061279297,214600,0.0,0.0
2022-07-25 00:00:00-04:00,100.39435209935876,101.15902264639725,99.61032607602652,100.58793640136719,267400,0.0,0.0
2022-07-26 00:00:00-04:00,100.17020162451607,100.91824467106436,98.97526724828157,100.86967468261719,262200,0.38,0.0
2022-07-27 00:00:00-04:00,101.26797713599707,103.50240404727282,100.68508541492916,103.00694274902344,229200,0.0,0.0
2022-07-28 00:00:00-04:00,103.05552239303853,104.74591064453125,102.15203761154112,104.74591064453125,249800,0.0,0.0
2022-07-29 00:00:00-04:00,104.11444748344815,106.36830108534534,103.35668744489485,104.68762969970703,424400,0.0,0.0
2022-08-01 00:00:00-04:00,103.2692365701868,105.55223319668197,102.59890709408234,105.11505889892578,277000,0.0,0.0
2022-08-02 00:00:00-04:00,104.78476672505046,104.95963497909784,102.8126459449923,103.55097198486328,209700,0.0,0.0
2022-08-03 00:00:00-04:00,104.26987057651027,105.71738647853249,103.40524633735401,104.57102966308594,260700,0.0,0.0
2022-08-04 00:00:00-04:00,104.14357656014805,104.16301048309464,102.84178537378442,103.4052505493164,292600,0.0,0.0
2022-08-05 00:00:00-04:00,102.65720574797297,103.62869441577672,102.09374054179791,102.63777923583984,174600,0.0,0.0
2022-08-08 00:00:00-04:00,103.104074415001,104.92076062370285,102.98750053568207,104.2115707397461,219300,0.0,0.0
2022-08-09 00:00:00-04:00,104.68760545319577,104.92076062370285,103.4538108766962,104.2115707397461,249200,0.0,0.0
2022-08-10 00:00:00-04:00,106.11571481505423,107.58265742729695,104.96935784336637,106.64031219482422,152900,0.0,0.0
2022-08-11 00:00:00-04:00,107.48550863591778,108.11697777012454,106.42658951592706,106.50430297851562,171100,0.0,0.0
2022-08-12 00:00:00-04:00,107.36892516876607,107.98096777800639,106.99976214030221,107.9129638671875,201300,0.0,0.0
2022-08-15 00:00:00-04:00,107.5243650053825,109.22447015753816,107.5243650053825,108.71929931640625,146500,0.0,0.0
2022-08-16 00:00:00-04:00,107.99067458429046,109.05931054460501,107.55350027425062,108.87472534179688,187700,0.0,0.0
2022-08-17 00:00:00-04:00,107.83524403755561,108.29184490541572,106.91233275153192,107.86438751220703,173100,0.0,0.0
2022-08-18 00:00:00-04:00,107.77695708825279,107.9712518605092,106.83461187788117,107.86438751220703,197300,0.0,0.0
2022-08-19 00:00:00-04:00,108.00039377781847,108.08783161238236,106.42658687437222,107.01919555664062,253400,0.0,0.0
2022-08-22 00:00:00-04:00,106.0574088475859,106.1934166588472,104.67789681229583,104.84304809570312,178300,0.0,0.0
2022-08-23 00:00:00-04:00,104.80418648532448,105.34822513613018,102.98750756450484,103.84241485595703,178000,0.0,0.0
2022-08-24 00:00:00-04:00,104.308738262776,104.9887773480992,103.67726916247865,104.3864517211914,183000,0.0,0.0
2022-08-25 00:00:00-04:00,104.4738919450044,105.86312103271484,104.4738919450044,105.86312103271484,132900,0.0,0.0
2022-08-26 00:00:00-04:00,106.42657917158935,106.42657917158935,101.19996575621899,101.4331283569336,152000,0.0,0.0
2022-08-29 00:00:00-04:00,101.00567708276391,101.49142141236314,99.8593201684349,101.03482055664062,146800,0.0,0.0
2022-08-30 00:00:00-04:00,101.4622845498415,101.6857228053692,99.79132276123983,101.08340454101562,148900,0.0,0.0
2022-08-31 00:00:00-04:00,101.4039906671931,101.7731611270912,99.82046671028158,99.87875366210938,180300,0.0,0.0
2022-09-01 00:00:00-04:00,99.44158657615682,99.93704790169005,98.44095437437831,99.69417572021484,212200,0.0,0.0
2022-09-02 00:00:00-04:00,100.39362525176277,101.20967950461839,97.84832994232286,98.5380859375,206000,0.0,0.0
2022-09-06 00:00:00-04:00,98.37295198868806,98.97527026450888,96.96428886711976,97.46946716308594,159300,0.0,0.0
2022-09-07 00:00:00-04:00,97.77061689954385,100.67536588048566,97.75119038781511,100.2964859008789,164200,0.0,0.0
2022-09-08 00:00:00-04:00,99.34443208193838,102.02573543714085,99.21813381300542,101.89944458007812,137900,0.0,0.0
2022-09-09 00:00:00-04:00,102.66693147175287,103.77442805461524,101.69544272104055,103.3761215209961,197100,0.0,0.0
2022-09-12 00:00:00-04:00,104.12415625437588,105.1830753501033,103.69669886651582,104.05615234375,154500,0.0,0.0
2022-09-13 00:00:00-04:00,102.16176428881748,102.73493911483325,101.0154072249147,101.05426025390625,271700,0.0,0.0
2022-09-14 00:00:00-04:00,100.85023113937737,101.3359754487463,99.52900602494431,100.62679290771484,250700,0.0,0.0
2022-09-15 00:00:00-04:00,100.30622229358463,102.39492477287136,100.27707881441088,102.20062255859375,423000,0.0,0.0
2022-09-16 00:00:00-04:00,101.35541068808473,101.35541068808473,98.50894870174065,99.71359252929688,579400,0.0,0.0
2022-09-19 00:00:00-04:00,98.94611567543599,101.56913942865609,98.9363987137935,101.5497055053711,194400,0.0,0.0
2022-09-20 00:00:00-04:00,100.50049533997762,100.50049533997762,97.81919207023071,98.29521942138672,157500,0.0,0.0
2022-09-21 00:00:00-04:00,98.88782852205546,99.3638558753593,96.78940952387761,96.8282699584961,173500,0.0,0.0
2022-09-22 00:00:00-04:00,96.31337909888104,96.31337909888104,94.49669275072368,95.32246398925781,199200,0.0,0.0
2022-09-23 00:00:00-04:00,94.16638652585351,95.50703807192633,94.16638652585351,95.28359985351562,274900,0.0,0.0
2022-09-26 00:00:00-04:00,94.7201437390094,95.64305499530806,93.68065117598944,94.6327133178711,364000,0.0,0.0
2022-09-27 00:00:00-04:00,95.1961709040066,95.98308175194913,92.51486756188235,93.32119750976562,238600,0.0,0.0
2022-09-28 00:00:00-04:00,93.99151763757781,95.69162260776656,93.3114786142501,95.43903350830078,237000,0.0,0.0
2022-09-29 00:00:00-04:00,94.44811483163576,94.48697526174952,93.52519629313954,94.01094055175781,206400,0.0,0.0
2022-09-30 00:00:00-04:00,93.37949074175435,94.97273151834811,92.16512994179752,92.32056427001953,471500,0.0,0.0
2022-10-03 00:00:00-04:00,93.70979545491807,95.22531539596609,92.93260897237536,94.66185760498047,274200,0.0,0.0
2022-10-04 00:00:00-04:00,96.26481026562976,96.98371722927573,95.70135246119517,96.40082550048828,262900,0.0,0.0
2022-10-05 00:00:00-04:00,95.29332235631225,96.6436984587531,94.26354671334018,95.3807601928711,201300,0.0,0.0
2022-10-06 00:00:00-04:00,94.87559463869054,95.4001920398949,93.57379586286571,94.95330810546875,202100,0.0,0.0
2022-10-07 00:00:00-04:00,94.16640301353934,94.16640301353934,90.93134375973084,91.3005142211914,119000,0.0,0.0
2022-10-10 00:00:00-04:00,91.6988240971188,92.74803374401823,91.23251363974423,91.67939758300781,177300,0.0,0.0
2022-10-11 00:00:00-04:00,91.12564687108541,92.92289955957183,90.63990250058255,92.0388412475586,369800,0.0,0.0
2022-10-12 00:00:00-04:00,92.05826193443838,92.05826193443838,90.61073858195626,90.70789337158203,147400,0.0,0.0
2022-10-13 00:00:00-04:00,88.47347445229413,92.32056876441929,87.65742751269354,91.86396789550781,237000,0.0,0.0
2022-10-14 00:00:00-04:00,92.6800243448799,93.18519521246711,91.42680302052216,92.36914825439453,319300,0.0,0.0
2022-10-17 00:00:00-04:00,93.2823346480487,94.59385022321766,93.2823346480487,94.54527282714844,344900,0.0,0.0
2022-10-18 00:00:00-04:00,96.42025075179662,97.12944074398997,95.30303729597603,96.44939422607422,281300,0.0,0.0
2022-10-19 00:00:00-04:00,95.89565649894226,96.3814008885095,94.80758639803798,95.409912109375,359500,0.0,0.0
2022-10-20 00:00:00-04:00,95.28361168402189,95.88592992310433,92.70916519503372,93.33091735839844,185600,0.0,0.0
2022-10-21 00:00:00-04:00,92.8354537384103,95.12816756304778,91.83482160708982,94.73957061767578,176400,0.0,0.0
2022-10-24 00:00:00-04:00,95.10873887329721,95.98308012739575,94.49669628949319,95.0990219116211,158500,0.0,0.0
2022-10-25 00:00:00-04:00,94.08473830554523,96.97155011982244,93.59710102392906,96.75698852539062,292500,0.38,0.0
2022-10-26 00:00:00-04:00,97.38115668231589,98.55149053890202,96.51316297841029,96.63994598388672,271900,0.0,0.0
2022-10-27 00:00:00-04:00,96.65945564057779,98.15162442502776,96.42539184556212,96.63994598388672,216700,0.0,0.0
2022-10-28 00:00:00-04:00,99.42924146767989,101.54559298281465,96.76674600397702,98.6295166015625,445300,0.0,0.0
2022-10-31 00:00:00-04:00,97.48844874875874,98.11262390150411,96.64971199211561,96.69847869873047,372900,0.0,0.0
2022-11-01 00:00:00-04:00,97.13735118574695,97.13735118574695,94.48460301457354,94.81620025634766,301300,0.0,0.0
2022-11-02 00:00:00-04:00,94.78694809358534,95.33309953082768,92.2317257650846,92.41703033447266,268400,0.0,0.0
2022-11-03 00:00:00-04:00,91.9488872434991,92.67058835738494,90.26166636799188,92.36825561523438,278300,0.0,0.0
2022-11-04 00:00:00-04:00,94.0554889664151,96.33762805982337,93.85068218424422,96.32787322998047,209100,0.0,0.0
2022-11-07 00:00:00-05:00,96.73748808513194,98.03459762308559,95.55740673483317,98.00534057617188,180700,0.0,0.0
2022-11-08 00:00:00-05:00,98.50274259061094,99.24395343014979,97.65425094110901,97.86881256103516,153100,0.0,0.0
2022-11-09 00:00:00-05:00,97.7517830749261,98.3857056554023,96.11332133794969,96.66922760009766,165300,0.0,0.0
2022-11-10 00:00:00-05:00,100.28748775829739,100.69710129983766,98.5417453513467,99.79985046386719,266000,0.0,0.0
2022-11-11 00:00:00-05:00,100.29723023611837,102.48185056554627,98.95135404805907,101.67237091064453,292600,0.0,0.0
2022-11-14 00:00:00-05:00,101.0482043347306,102.66715634052619,101.0482043347306,101.81867218017578,238400,0.0,0.0
2022-11-15 00:00:00-05:00,103.21332163923044,104.36414606449054,101.70164290205855,102.10150909423828,272500,0.0,0.0
2022-11-16 00:00:00-05:00,102.26729919618415,103.27183088339511,102.11125168244985,102.32581329345703,139300,0.0,0.0
2022-11-17 00:00:00-05:00,101.14572702617149,102.47210106632555,101.14572702617149,102.02347564697266,162700,0.0,0.0
2022-11-18 00:00:00-05:00,103.48638262905804,104.28610745882128,102.02347081065547,103.4181137084961,213200,0.0,0.0
2022-11-21 00:00:00-05:00,103.47663751464346,104.06180080878913,102.33556797494614,102.54037475585938,193300,0.0,0.0
2022-11-22 00:00:00-05:00,102.63789385625377,104.0227894032295,102.63789385625377,103.37910461425781,284000,0.0,0.0
2022-11-23 00:00:00-05:00,103.36934797323266,104.13981576436593,102.9694892749825,103.56440734863281,202100,0.0,0.0
2022-11-25 00:00:00-05:00,103.91551120590492,103.91551120590492,102.94998399828181,103.29133605957031,114700,0.0,0.0
2022-11-28 00:00:00-05:00,102.44284169904996,102.88171227913404,100.68734449720469,100.94091796875,208500,0.0,0.0
2022-11-29 00:00:00-05:00,100.4532824933491,101.52608305124366,100.38501356986731,100.755615234375,181400,0.0,0.0
2022-11-30 00:00:00-05:00,100.34601275927093,103.55466739826333,98.99038152867075,103.51565551757812,297900,0.0,0.0
2022-12-01 00:00:00-05:00,104.13982879131224,105.11510346804789,103.87650790252593,104.4421615600586,156600,0.0,0.0
2022-12-02 00:00:00-05:00,103.6326756335968,105.86605524312506,103.47662813423473,105.37841796875,167400,0.0,0.0
2022-12-05 00:00:00-05:00,104.21785324597815,104.28612217617454,103.06702882212815,104.06180572509766,153800,0.0,0.0
2022-12-06 00:00:00-05:00,103.91550717161311,104.43240149703342,102.7646828950954,104.35437774658203,247800,0.0,0.0
2022-12-07 00:00:00-05:00,104.0910602658664,105.48570322721312,103.57415848292639,103.67169189453125,152800,0.0,0.0
2022-12-08 00:00:00-05:00,103.81797344078954,105.27113788560536,103.81797344078954,105.26138305664062,190800,0.0,0.0
2022-12-09 00:00:00-05:00,105.16385934923228,106.28542660013909,104.9883096278664,105.38816833496094,316700,0.0,0.0
2022-12-12 00:00:00-05:00,105.77827835254486,106.09036591549497,104.83226083464011,105.40767669677734,209100,0.0,0.0
2022-12-13 00:00:00-05:00,107.65081382166188,108.36276759428272,104.92004925004925,105.53446960449219,328400,0.0,0.0
2022-12-14 00:00:00-05:00,105.75878008773033,107.55328178157113,104.57869871369823,105.563720703125,302500,0.0,0.0
2022-12-15 00:00:00-05:00,105.03707103293462,105.86606039229649,104.5884456115796,104.98831176757812,230000,0.0,0.0
2022-12-16 00:00:00-05:00,104.46165828214501,105.5832255096285,103.7594594113465,104.78350067138672,540600,0.0,0.0
2022-12-19 00:00:00-05:00,104.66647921791976,105.68076578632449,103.16455530551787,103.6326904296875,269800,0.0,0.0
2022-12-20 00:00:00-05:00,103.79847841721525,105.4564422999126,103.6424309059824,104.47142028808594,193300,0.0,0.0
2022-12-21 00:00:00-05:00,105.31015423995657,107.90438079833984,104.9102880836928,107.90438079833984,388500,0.0,0.0
2022-12-22 00:00:00-05:00,106.79256152991572,108.06042140109311,104.80300058660487,105.87580108642578,213800,0.0,0.0
2022-12-23 00:00:00-05:00,106.44145603443097,107.47524460104849,105.6709883031911,107.28994750976562,161500,0.0,0.0
2022-12-27 00:00:00-05:00,107.18267511777245,108.27497785764758,106.91934682101372,108.12869262695312,101700,0.0,0.0
2022-12-28 00:00:00-05:00,108.31399440702319,109.1429837674232,106.31468594679085,106.4707260131836,162700,0.0,0.0
2022-12-29 00:00:00-05:00,107.20217528351922,108.42126845434005,106.67552614083412,108.05066680908203,128700,0.0,0.0
2022-12-30 00:00:00-05:00,107.76785122528503,108.00191506308684,106.3244414372041,107.26071166992188,172300,0.0,0.0
2023-01-03 00:00:00-05:00,107.8458705434527,108.32375302950469,106.74380544770912,107.53378295898438,239200,0.0,0.0
2023-01-04 00:00:00-05:00,108.50906204230205,109.43557000399156,107.5825466398573,108.47980499267578,217200,0.0,0.0
2023-01-05 00:00:00-05:00,107.90438386088975,110.23528961821611,106.42196970556171,109.34779357910156,310000,0.0,0.0
2023-01-06 00:00:00-05:00,110.57662775494772,111.57141198035454,109.95245262717476,111.23981475830078,181500,0.0,0.0
2023-01-09 00:00:00-05:00,111.79571495362444,112.81975617047314,110.47909584678617,110.52786254882812,161800,0.0,0.0
2023-01-10 00:00:00-05:00,110.39133291098878,111.51289273371366,110.16701648199104,110.62539672851562,163000,0.0,0.0
2023-01-11 00:00:00-05:00,110.77168344999768,111.60066531643906,110.64489299838912,110.65464782714844,141300,0.0,0.0
2023-01-12 00:00:00-05:00,110.87896145938892,110.97648742227018,109.62085644818488,110.69365692138672,179100,0.0,0.0
2023-01-13 00:00:00-05:00,110.41084301038175,111.4836436447782,110.41084301038175,111.15205383300781,177700,0.0,0.0
2023-01-17 00:00:00-05:00,111.35685038504113,111.69819499542407,110.04023120741864,111.23981475830078,204500,0.0,0.0
2023-01-18 00:00:00-05:00,111.65918869723848,111.76646950025388,109.15273323186517,109.20149993896484,118900,0.0,0.0
2023-01-19 00:00:00-05:00,108.83089694430555,109.6306293174961,107.60205621642669,109.22100830078125,177400,0.0,0.0
2023-01-20 00:00:00-05:00,109.67937380115757,110.48885345458984,108.92841567979852,110.48885345458984,180800,0.0,0.0
2023-01-23 00:00:00-05:00,110.40108139917471,110.91798318579559,109.67938028083822,110.55712890625,165500,0.0,0.0
2023-01-24 00:00:00-05:00,110.2352847150311,110.35232034343879,108.9966892709232,110.04998016357422,172600,0.0,0.0
2023-01-25 00:00:00-05:00,109.07471005247224,109.7281497035842,107.75809080213567,109.29902648925781,181200,0.0,0.0
2023-01-26 00:00:00-05:00,109.72815262186917,110.09875430907252,109.05521073437004,110.00122833251953,139000,0.0,0.0
2023-01-27 00:00:00-05:00,109.72814165564401,110.14751000958971,109.09421171027199,109.94270324707031,204300,0.0,0.0
2023-01-30 00:00:00-05:00,108.9479281647212,110.52787574602776,108.7041095069072,110.4498519897461,200200,0.0,0.0
2023-01-31 00:00:00-05:00,111.01550193534723,113.44393344037864,110.5181098398454,112.78074645996094,630900,0.0,0.0
2023-02-01 00:00:00-05:00,111.98816783570234,115.52051702765439,111.92946082966749,114.57138061523438,190900,0.38,0.0
2023-02-02 00:00:00-05:00,114.57138127466314,115.79449367599972,114.07235678992349,114.77687072753906,271600,0.0,0.0
2023-02-03 00:00:00-05:00,114.08215613885235,114.08215613885235,112.7318425006277,112.93732452392578,284100,0.0,0.0
2023-02-06 00:00:00-05:00,112.09581247400796,113.0155954666978,110.99990844726562,110.99990844726562,180400,0.0,0.0
2023-02-07 00:00:00-05:00,110.24646544851845,110.40302743035079,108.32862596278922,109.77679443359375,189100,0.0,0.0
2023-02-08 00:00:00-05:00,109.3168985454117,109.74743651284261,108.17206709414592,108.18184661865234,138800,0.0,0.0
2023-02-09 00:00:00-05:00,109.08206023373887,109.4049562356974,106.89023742452264,106.9000244140625,180200,0.0,0.0
2023-02-10 00:00:00-05:00,106.6554112429514,106.87068023990592,105.56928673307092,106.86089324951172,217900,0.0,0.0
2023-02-13 00:00:00-05:00,107.04680442246669,108.1622823932468,106.90002943361962,107.43820190429688,184900,0.0,0.0
2023-02-14 00:00:00-05:00,107.43820360568301,108.80808361585296,107.30121560466603,107.39906311035156,122500,0.0,0.0
2023-02-15 00:00:00-05:00,106.4792815568927,108.02529754936728,106.23465905676518,108.01551055908203,155200,0.0,0.0
2023-02-16 00:00:00-05:00,106.38143267257288,109.1309871495159,105.85304718330413,108.3090591430664,372200,0.0,0.0
2023-02-17 00:00:00-05:00,112.52634981894491,118.67126581461193,111.56742633576187,114.18000030517578,590700,0.0,0.0
2023-02-21 00:00:00-05:00,113.99408350673167,113.99408350673167,110.67700304740676,112.60462951660156,463900,0.0,0.0
2023-02-22 00:00:00-05:00,112.14473062359853,113.5048310187556,111.96860213892352,112.25236511230469,257700,0.0,0.0
2023-02-23 00:00:00-05:00,112.34043243199615,113.07429991841427,110.64764894388522,112.09580993652344,196400,0.0,0.0
2023-02-24 00:00:00-05:00,111.35217096867521,112.56549654358277,110.55958894969791,112.30130004882812,215100,0.0,0.0
2023-02-27 00:00:00-05:00,113.34827783428503,114.72795231540253,113.02538180842211,114.18000030517578,215300,0.0,0.0
2023-02-28 00:00:00-05:00,114.14086421141212,115.56945876837499,114.08214973284754,114.20935821533203,261500,0.0,0.0
2023-03-01 00:00:00-05:00,113.68095999149226,115.08020088539392,113.68095999149226,114.93342590332031,194700,0.0,0.0
2023-03-02 00:00:00-05:00,114.89429070070614,116.44030664786749,114.7083826824528,116.02934265136719,205000,0.0,0.0
2023-03-03 00:00:00-05:00,116.41094808637314,117.66341400146484,115.31503667802504,117.66341400146484,225400,0.0,0.0
2023-03-06 00:00:00-05:00,117.54599853680486,117.6047130119629,114.07236358913649,114.31698608398438,265900,0.0,0.0
2023-03-07 00:00:00-05:00,114.19956377353569,114.81600976859379,113.72010577737939,114.1604232788086,247100,0.0,0.0
2023-03-08 00:00:00-05:00,113.90602946069806,114.18978500364545,112.69269643267285,112.84925842285156,281700,0.0,0.0
2023-03-09 00:00:00-05:00,113.46569894579096,113.90602392279584,112.0664579540653,112.10559844970703,189700,0.0,0.0
2023-03-10 00:00:00-05:00,112.17410085583242,112.17410085583242,109.86486369694504,110.13883972167969,201400,0.0,0.0
2023-03-13 00:00:00-04:00,109.05271206509913,110.67700911622507,109.05271206509913,109.56153106689453,245400,0.0,0.0
2023-03-14 00:00:00-04:00,111.42065752794538,112.7807580129058,111.04882655503299,112.60462951660156,261500,0.0,0.0
2023-03-15 00:00:00-04:00,111.0194680262325,111.30323100550942,107.80023521823885,108.98420715332031,256200,0.0,0.0
2023-03-16 00:00:00-04:00,107.84917900531208,110.8433562943485,107.5849825002283,110.25626373291016,209200,0.0,0.0
2023-03-17 00:00:00-04:00,110.49108261350074,110.49108261350074,107.58496628725061,108.37754821777344,393800,0.0,0.0
2023-03-20 00:00:00-04:00,109.39518705084062,111.0292635900135,109.39518705084062,110.3541030883789,146400,0.0,0.0
2023-03-21 00:00:00-04:00,111.67506034275999,111.76312832418068,110.05077083445002,110.58893585205078,141200,0.0,0.0
2023-03-22 00:00:00-04:00,110.3736751112363,111.76312912114271,109.7278681271668,109.83550262451172,176700,0.0,0.0
2023-03-23 00:00:00-04:00,109.73766081095724,111.00969339922412,108.42648025949426,109.31690979003906,156900,0.0,0.0
2023-03-24 00:00:00-04:00,108.63195620067049,110.55958268953378,107.65346620350424,110.5400161743164,148800,0.0,0.0
2023-03-27 00:00:00-04:00,111.01947842578275,112.36979198597774,111.01947842578275,111.5282974243164,170100,0.0,0.0
2023-03-28 00:00:00-04:00,111.32280877340563,112.64377630209509,110.7063627345607,112.5459213256836,189800,0.0,0.0
2023-03-29 00:00:00-04:00,113.20151888822251,113.44614140637302,112.68292034418931,113.37764739990234,138700,0.0,0.0
2023-03-30 00:00:00-04:00,113.77880556163832,114.25826352734805,112.57526715267309,113.45590209960938,148000,0.0,0.0
2023-03-31 00:00:00-04:00,114.01363657739152,115.72599385304125,114.01363657739152,115.64772033691406,206300,0.0,0.0
2023-04-03 00:00:00-04:00,115.39332536489201,116.25439387266012,115.11934936084243,116.09783935546875,151100,0.0,0.0
2023-04-04 00:00:00-04:00,115.95106450381833,115.95106450381833,114.2680605165745,115.138916015625,183100,0.0,0.0
2023-04-05 00:00:00-04:00,115.20740478824561,116.63599922146386,114.70838028803446,116.51858520507812,249700,0.0,0.0
2023-04-06 00:00:00-04:00,116.77298416349359,116.77298416349359,115.39331725004219,116.49900817871094,159300,0.0,0.0
2023-04-10 00:00:00-04:00,115.83364820843825,116.65558372370869,115.43247117412322,116.53816223144531,174600,0.0,0.0
2023-04-11 00:00:00-04:00,116.63600244885973,117.40901042769431,116.27396593460473,116.4892349243164,121800,0.0,0.0
2023-04-12 00:00:00-04:00,116.76321254687886,117.09589556084956,115.64773455312766,115.84342956542969,134300,0.0,0.0
2023-04-13 00:00:00-04:00,115.80428084065862,117.41879070592218,115.3541763721202,117.20352172851562,110700,0.0,0.0
2023-04-14 00:00:00-04:00,116.61643507221491,117.47750355941214,115.76514610972423,116.63600158691406,233600,0.0,0.0
2023-04-17 00:00:00-04:00,116.92955014017048,117.23287963867188,115.9804136851727,117.23287963867188,122400,0.0,0.0
2023-04-18 00:00:00-04:00,117.15461668690735,117.15461668690735,115.51075310828533,116.03913116455078,261700,0.0,0.0
2023-04-19 00:00:00-04:00,115.82386452817116,116.86106154412121,115.52052755036053,116.15654754638672,252900,0.0,0.0
2023-04-20 00:00:00-04:00,116.44030439380829,117.22309934223397,115.97062593169571,116.46965789794922,296800,0.0,0.0
2023-04-21 00:00:00-04:00,116.75342240769223,118.46577984765226,116.24461091025852,117.99610137939453,361500,0.0,0.0
2023-04-24 00:00:00-04:00,118.2603004210181,118.80825242482325,117.16438894812165,117.81019592285156,229600,0.0,0.0
2023-04-25 00:00:00-04:00,116.86105855385608,117.3698700584857,115.34439609947044,115.53031158447266,167500,0.0,0.0
2023-04-26 00:00:00-04:00,114.49311523060877,115.0508542234253,113.12322775860564,113.26021575927734,247200,0.0,0.0
2023-04-27 00:00:00-04:00,113.260214811602,114.07236328399316,112.16430335011202,114.06257629394531,361900,0.0,0.0
2023-04-28 00:00:00-04:00,114.00388105052731,116.9980582995924,114.00388105052731,115.96086120605469,586700,0.0,0.0
2023-05-01 00:00:00-04:00,116.84148544332882,119.86501572606133,116.84148544332882,119.02351379394531,283100,0.0,0.0
2023-05-02 00:00:00-04:00,118.14288317086096,118.27987117672369,113.24065353544547,117.88848114013672,359200,0.0,0.0
2023-05-03 00:00:00-04:00,118.25165760847847,118.78171490676155,117.53509658795517,117.69215393066406,294300,0.38,0.0
2023-05-04 00:00:00-04:00,117.73142656290354,117.93755872305542,116.20996527604514,116.61241912841797,192500,0.0,0.0
2023-05-05 00:00:00-04:00,116.79891023415145,119.63569303395245,116.79891023415145,119.4590072631836,171100,0.0,0.0
2023-05-08 00:00:00-04:00,119.6160668606866,120.08722393233099,118.438166692669,119.2626953125,200400,0.0,0.0
2023-05-09 00:00:00-04:00,118.64430286832271,118.80135273455751,117.48603108532694,118.3596420288086,185600,0.0,0.0
2023-05-10 00:00:00-04:00,118.8602453836766,119.33140995974044,116.31794123325378,117.41732025146484,227200,0.0,0.0
2023-05-11 00:00:00-04:00,117.27989407350391,117.62344766253574,116.76946517930813,117.08357238769531,203900,0.0,0.0
2023-05-12 00:00:00-04:00,117.47621195875408,118.64430168704287,117.15228678367968,118.5657730102539,168400,0.0,0.0
2023-05-15 00:00:00-04:00,118.36945249682478,118.84061707334293,117.82958468856575,118.3596420288086,148300,0.0,0.0
2023-05-16 00:00:00-04:00,118.35963697918922,118.35963697918922,116.03327555552497,116.14125061035156,180800,0.0,0.0
2023-05-17 00:00:00-04:00,116.63204222599711,116.84799233312319,115.29708473549634,116.77928161621094,168600,0.0,0.0
2023-05-18 00:00:00-04:00,115.99401185542538,116.857812298782,115.61119392763109,116.79891204833984,94000,0.0,0.0
2023-05-19 00:00:00-04:00,117.67252566837792,118.05534360498534,116.41609680065028,116.8970718383789,156900,0.0,0.0
2023-05-22 00:00:00-04:00,116.4848073931993,117.3191539851791,115.71917152082003,115.95475006103516,229600,0.0,0.0
2023-05-23 00:00:00-04:00,115.23818978808656,116.26885052221142,114.7572147788283,115.0222396850586,155400,0.0,0.0
2023-05-24 00:00:00-04:00,115.03205806094066,115.03205806094066,112.91182884773758,113.00017547607422,297800,0.0,0.0
2023-05-25 00:00:00-04:00,112.1854616347367,113.15722965008982,111.35111505634639,111.44927215576172,196800,0.0,0.0
2023-05-26 00:00:00-04:00,110.90940001682789,112.38177901647904,110.87013567816837,112.057861328125,210200,0.0,0.0
2023-05-30 00:00:00-04:00,112.10692956090803,112.60754048832791,110.92902942582099,111.2725830078125,136100,0.0,0.0
2023-05-31 00:00:00-04:00,111.35111314041339,111.46889866212248,109.6333377190282,110.4186019897461,360800,0.0,0.0
2023-06-01 00:00:00-04:00,110.74252041208102,111.42962754325274,109.9768846119451,110.86031341552734,170700,0.0,0.0
2023-06-02 00:00:00-04:00,111.91062193037851,112.63699347331249,111.56706832824129,112.057861328125,353000,0.0,0.0
2023-06-05 00:00:00-04:00,111.70448262306778,112.12656487552233,110.80141786948396,110.97810363769531,237400,0.0,0.0
2023-06-06 00:00:00-04:00,110.95846843146386,112.54864024816291,110.95846843146386,112.21489715576172,266900,0.0,0.0
2023-06-07 00:00:00-04:00,112.25416759300819,113.56948914499125,111.9596888183431,113.28483581542969,264100,0.0,0.0
2023-06-08 00:00:00-04:00,113.4320610885914,113.85414331354195,112.67624326149225,113.07868957519531,270500,0.0,0.0
2023-06-09 00:00:00-04:00,112.9412812011952,113.441892151164,112.28362038763048,112.69588470458984,295000,0.0,0.0
2023-06-12 00:00:00-04:00,112.56828023770653,113.46151958330516,112.19528026213554,113.26520538330078,353000,0.0,0.0
2023-06-13 00:00:00-04:00,113.57930920963341,114.24678795421295,112.6468055540605,113.08851623535156,340600,0.0,0.0
2023-06-14 00:00:00-04:00,113.48114700172985,113.8247005704733,112.24434666534736,113.03943634033203,225200,0.0,0.0
2023-06-15 00:00:00-04:00,112.88237202964767,114.2565937086593,112.8332897418986,113.91304016113281,362600,0.0,0.0
2023-06-16 00:00:00-04:00,113.52041136526161,115.05168297999425,113.23575055425765,114.99279022216797,975300,0.0,0.0
2023-06-20 00:00:00-04:00,114.72776130191517,114.79647201775808,113.57930755615234,113.57930755615234,297000,0.0,0.0
2023-06-21 00:00:00-04:00,113.01980117361711,113.13759417892268,111.33147220876805,111.52779388427734,317800,0.0,0.0
2023-06-22 00:00:00-04:00,111.85171029681588,111.95968534491618,110.28117435477432,111.94987487792969,266200,0.0,0.0
2023-06-23 00:00:00-04:00,110.82106057375844,111.63577874871399,110.0063423988029,110.75234985351562,366000,0.0,0.0
2023-06-26 00:00:00-04:00,110.97810720466035,112.26398991588081,110.97810720466035,111.51798248291016,142300,0.0,0.0
2023-06-27 00:00:00-04:00,111.73392545883496,112.7056934087205,111.14497541311361,112.60753631591797,218300,0.0,0.0
2023-06-28 00:00:00-04:00,112.69588087233157,112.69588087233157,110.40879129331206,111.42963409423828,204800,0.0,0.0
2023-06-29 00:00:00-04:00,111.34130323371589,113.2357645635369,110.4775102268038,112.66644287109375,225900,0.0,0.0
2023-06-30 00:00:00-04:00,113.09833284074686,114.13881153734555,112.72532539184819,113.72654724121094,279800,0.0,0.0
2023-07-03 00:00:00-04:00,113.28483828054459,114.86518477299002,113.28483828054459,114.39402770996094,85700,0.0,0.0
2023-07-05 00:00:00-04:00,113.49096391458002,113.49096391458002,110.68362765481089,110.86031341552734,384200,0.0,0.0
2023-07-06 00:00:00-04:00,110.18302906767403,110.89959014648484,109.57444304853206,110.39897918701172,277700,0.0,0.0
2023-07-07 00:00:00-04:00,110.57566419205385,113.20631496671577,110.51676393970676,111.69467163085938,333400,0.0,0.0
2023-07-10 00:00:00-04:00,111.22349362576098,113.17685491826042,110.92902235521201,112.36213684082031,248000,0.0,0.0
2023-07-11 00:00:00-04:00,112.20508796771925,113.4320704098084,111.28240226372463,113.38299560546875,226700,0.0,0.0
2023-07-12 00:00:00-04:00,114.43329570919582,115.38543531104503,113.63820597041392,114.71795654296875,199400,0.0,0.0
2023-07-13 00:00:00-04:00,114.69832746532576,115.20875640075533,114.41366661458757,114.85538482666016,190200,0.0,0.0
2023-07-14 00:00:00-04:00,115.52284962915222,116.65166744903586,114.55107417374965,116.17069244384766,271600,0.0,0.0
2023-07-17 00:00:00-04:00,116.21977744333584,117.33878482207749,115.00261296782688,117.0639419555664,234200,0.0,0.0
2023-07-18 00:00:00-04:00,116.81854209297525,118.15349953936672,116.51424536621278,116.88725280761719,189100,0.0,0.0
2023-07-19 00:00:00-04:00,116.56333073191328,117.21118104897205,116.13143052054077,116.91670227050781,247200,0.0,0.0
2023-07-20 00:00:00-04:00,117.57435530298707,118.00625548588324,116.6712980923005,117.13264465332031,175800,0.0,0.0
2023-07-21 00:00:00-04:00,117.44676638675152,117.83940228449602,116.68113050504851,117.63326263427734,184300,0.0,0.0
2023-07-24 00:00:00-04:00,117.80994478383553,118.27129138780221,116.52406956002712,117.5252914428711,163400,0.0,0.0
2023-07-25 00:00:00-04:00,117.476210996403,118.88969721139811,117.10321101807118,118.34000396728516,250700,0.0,0.0
2023-07-26 00:00:00-04:00,118.34985607308383,118.58623849459941,117.03003856449325,118.14301300048828,306900,0.41,0.0
2023-07-27 00:00:00-04:00,118.25135370008546,118.96050846224766,116.95123914094194,117.34521484375,407800,0.0,0.0
2023-07-28 00:00:00-04:00,120.64475358705498,125.07696356835932,120.04394229954343,121.91532135009766,513000,0.0,0.0
2023-07-31 00:00:00-04:00,121.6592367554332,122.06306394094794,119.00976521560548,119.6302719116211,746500,0.0,0.0
2023-08-01 00:00:00-04:00,119.41358520927224,120.65460611911824,118.93096888884513,120.59551239013672,365300,0.0,0.0
2023-08-02 00:00:00-04:00,119.61056232068424,120.48715426173165,118.17255747902823,120.39850616455078,329200,0.0,0.0
2023-08-03 00:00:00-04:00,119.68936989727761,120.88114857695965,118.90142593193492,118.99006652832031,195900,0.0,0.0
2023-08-04 00:00:00-04:00,118.80292117376706,120.29016834905809,118.66503080671306,118.82261657714844,116500,0.0,0.0
2023-08-07 00:00:00-04:00,118.91126810573093,119.82725843582493,118.69458108998327,119.46282958984375,140300,0.0,0.0
2023-08-08 00:00:00-04:00,118.27106860155233,119.5711832924251,117.90663972449973,119.29540252685547,270100,0.0,0.0
2023-08-09 00:00:00-04:00,119.29540183030906,121.53120232194752,118.70443446243924,119.99470520019531,287500,0.0,0.0
2023-08-10 00:00:00-04:00,119.96514930096563,121.70848186440932,119.96514930096563,120.388671875,216000,0.0,0.0
2023-08-11 00:00:00-04:00,119.67951193116477,121.36375069533648,119.67951193116477,120.762939453125,226500,0.0,0.0
2023-08-14 00:00:00-04:00,120.19168505519164,121.13722229003906,119.74846705945322,121.13722229003906,145700,0.0,0.0
2023-08-15 00:00:00-04:00,120.78262897293594,121.07811260746895,120.1424269555494,120.25076293945312,249000,0.0,0.0
2023-08-16 00:00:00-04:00,119.89620845848317,121.30466660320468,119.65981851478783,119.70906829833984,291100,0.0,0.0
2023-08-17 00:00:00-04:00,120.1227352184302,120.8121945916867,119.78786074829033,119.80755615234375,186600,0.0,0.0
2023-08-18 00:00:00-04:00,119.55147817269936,121.56074766061812,119.55147817269936,121.43270874023438,443100,0.0,0.0
2023-08-21 00:00:00-04:00,121.29481465792134,122.58507782562879,121.20616655077505,121.91532135009766,358800,0.0,0.0
2023-08-22 00:00:00-04:00,122.00397052287427,123.81624834633946,120.91069145011312,121.09782409667969,429600,0.0,0.0
2023-08-23 00:00:00-04:00,121.20616606012085,121.69863383382778,120.46746439956047,121.53119659423828,305000,0.0,0.0
2023-08-24 00:00:00-04:00,121.62968254967774,123.57000668314262,120.74323909854385,123.22528076171875,278400,0.0,0.0
2023-08-25 00:00:00-04:00,123.67835859597204,125.75657323927061,123.09725021956615,125.61868286132812,493000,0.0,0.0
2023-08-28 00:00:00-04:00,125.707311177898,127.62793985073722,125.707311177898,127.46050262451172,331900,0.0,0.0
2023-08-29 00:00:00-04:00,127.84463920951127,129.97210363463523,127.45065596656757,129.83421325683594,472400,0.0,0.0
2023-08-30 00:00:00-04:00,130.3759061188692,131.25249810459778,129.71600114344866,130.88807678222656,298900,0.0,0.0
2023-08-31 00:00:00-04:00,131.2722040887197,131.71542206418476,130.24787776700208,130.56304931640625,305800,0.0,0.0
2023-09-01 00:00:00-04:00,131.09492494428994,131.7745178351225,130.52366053389966,130.55320739746094,252000,0.0,0.0
2023-09-05 00:00:00-04:00,129.6963019473409,129.99178560886958,125.44138831966775,125.64822387695312,325300,0.0,0.0
2023-09-06 00:00:00-04:00,125.86490743154572,126.08158692765036,124.29885609165704,124.50569915771484,291100,0.0,0.0
2023-09-07 00:00:00-04:00,124.38750981983786,125.2542503868458,123.25483244984741,123.47151947021484,328600,0.0,0.0
2023-09-08 00:00:00-04:00,123.61925570619994,124.76177696941134,123.23513146547303,123.4222640991211,238800,0.0,0.0
2023-09-11 00:00:00-04:00,125.07696150990851,126.00280331761621,124.50570461048845,125.09666442871094,333500,0.0,0.0
2023-09-12 00:00:00-04:00,124.21021500686247,125.37243918341215,123.53060711543807,124.62388610839844,258000,0.0,0.0
2023-09-13 00:00:00-04:00,123.88518867479367,124.68298404247041,123.2252836789509,123.48136901855469,279300,0.0,0.0
2023-09-14 00:00:00-04:00,124.11172409736754,125.38229179040027,124.11172409736754,124.85042572021484,217900,0.0,0.0
2023-09-15 00:00:00-04:00,124.58448994506509,125.2837932520013,123.28437537881747,124.03292846679688,589200,0.0,0.0
2023-09-18 00:00:00-04:00,124.45645397713974,124.45645397713974,123.03814441153213,123.74729919433594,175100,0.0,0.0
2023-09-19 00:00:00-04:00,123.79654439534015,123.79654439534015,122.19109473410884,123.4222640991211,218600,0.0,0.0
2023-09-20 00:00:00-04:00,123.94428113776449,124.20036647475735,122.68356488558673,122.75251007080078,206200,0.0,0.0
2023-09-21 00:00:00-04:00,122.45703690729975,122.47673231164256,120.34927546291505,120.37882232666016,335700,0.0,0.0
2023-09-22 00:00:00-04:00,120.48717558793113,121.04858858790968,120.27048855031444,120.83190155029297,341200,0.0,0.0
2023-09-25 00:00:00-04:00,120.15228116938907,122.26004256679889,119.64011800881072,122.17140197753906,258800,0.0,0.0
2023-09-26 00:00:00-04:00,121.66907666868264,122.34868454348742,121.37360053815192,121.73802185058594,547000,0.0,0.0
2023-09-27 00:00:00-04:00,122.17139611432721,122.57521574790026,121.01902342248404,121.65922546386719,362400,0.0,0.0
2023-09-28 00:00:00-04:00,121.99411013583865,123.74729410203551,121.40315034597452,123.5798568725586,219300,0.0,0.0
2023-09-29 00:00:00-04:00,124.58449508840795,124.91937708151146,122.91010766627605,123.15634155273438,330900,0.0,0.0
2023-10-02 00:00:00-04:00,122.6540128194209,123.58970602416005,122.1221467641343,123.16618347167969,244100,0.0,0.0
2023-10-03 00:00:00-04:00,122.15170522531392,123.42227300340691,120.644755016134,121.01903533935547,236300,0.0,0.0
2023-10-04 00:00:00-04:00,121.68877935177565,122.78205831589531,120.48715688566493,122.35853576660156,208200,0.0,0.0
2023-10-05 00:00:00-04:00,122.09260062377363,123.04798923718573,120.95007937987702,121.8857650756836,466700,0.0,0.0
2023-10-06 00:00:00-04:00,121.74787677417403,124.78147989317664,121.53118976360791,124.50569915771484,491700,0.0,0.0
2023-10-09 00:00:00-04:00,123.92458710028268,125.30349833422895,123.79654818760531,125.02771759033203,275700,0.0,0.0
2023-10-10 00:00:00-04:00,125.3231951536615,126.67255953949541,124.60419642244754,124.63374328613281,322000,0.0,0.0
2023-10-11 00:00:00-04:00,125.60882568359375,125.77626291855002,124.74208513105981,125.60882568359375,212900,0.0,0.0
2023-10-12 00:00:00-04:00,125.30350378305916,125.48079248533969,123.17603935569285,123.5306167602539,189300,0.0,0.0
2023-10-13 00:00:00-04:00,124.10187352296693,124.761778507277,123.51091372336892,124.07232666015625,324900,0.0,0.0
2023-10-16 00:00:00-04:00,125.44138756500169,125.51033275034871,124.26931189964081,124.80117797851562,275200,0.0,0.0
2023-10-17 00:00:00-04:00,124.11173667090924,126.40663090072249,124.11173667090924,125.5595932006836,314400,0.0,0.0
2023-10-18 00:00:00-04:00,124.95877292177799,125.74671683410875,124.37765705376466,124.87012481689453,287300,0.0,0.0
2023-10-19 00:00:00-04:00,124.18067105542181,125.54973081483128,123.50106314806689,123.83594512939453,443900,0.0,0.0
2023-10-20 00:00:00-04:00,124.03293226088714,124.57464981108677,120.09319011968779,120.37882232666016,446500,0.0,0.0
2023-10-23 00:00:00-04:00,119.88635712970668,121.30466673557872,119.38403789188335,119.66967010498047,379000,0.0,0.0
2023-10-24 00:00:00-04:00,120.2901701673284,121.90546378962974,119.88635051898383,121.48194122314453,312100,0.0,0.0
2023-10-25 00:00:00-04:00,120.98783390708984,122.32193004982163,120.45419394209233,120.92854309082031,431300,0.41,0.0
2023-10-26 00:00:00-04:00,119.8316297385119,123.91297802297464,119.8316297385119,121.97606658935547,576000,0.0,0.0
2023-10-27 00:00:00-04:00,122.01559371378868,122.38123049558588,118.94222716992682,119.74268341064453,364000,0.0,0.0
2023-10-30 00:00:00-04:00,120.48384087248407,120.87913057816436,119.42644524501559,120.73089599609375,283100,0.0,0.0
2023-10-31 00:00:00-04:00,121.06689025210943,121.44241131139812,120.39490004002396,120.8297119140625,422900,0.0,0.0
2023-11-01 00:00:00-04:00,120.6716159060405,121.97606677307633,120.17750561489775,121.4819564819336,360500,0.0,0.0
2023-11-02 00:00:00-04:00,122.26264073231607,122.82592611235341,121.53135967777308,122.1242904663086,384300,0.0,0.0
2023-11-03 00:00:00-04:00,122.96427493970207,124.48613538750294,122.96427493970207,123.8734359741211,278000,0.0,0.0
2023-11-06 00:00:00-05:00,123.7943839445495,124.24897202852465,123.28051258024303,123.71533203125,173500,0.0,0.0
2023-11-07 00:00:00-05:00,123.15204561917379,123.51768239133312,122.70734185531134,123.08287048339844,205000,0.0,0.0
2023-11-08 00:00:00-05:00,123.40897033892367,124.01178543249576,122.94451304836508,123.64614868164062,175800,0.0,0.0
2023-11-09 00:00:00-05:00,124.20944098820135,124.20944098820135,122.60852101331227,122.92475128173828,118600,0.0,0.0
2023-11-10 00:00:00-05:00,122.77651268056438,124.3082574697725,122.43063701383082,124.23908233642578,195600,0.0,0.0
2023-11-13 00:00:00-05:00,123.91297299029823,124.00191675951038,122.90499135621492,123.06310272216797,183100,0.0,0.0
2023-11-14 00:00:00-05:00,124.46637361252297,126.35387845706128,123.83391307203956,126.343994140625,267400,0.0,0.0
2023-11-15 00:00:00-05:00,126.3143475614149,127.28280699604653,125.8498827070265,126.20564270019531,388600,0.0,0.0
2023-11-16 00:00:00-05:00,126.14634403726522,127.10491155642306,125.3458803326469,126.04752349853516,217000,0.0,0.0
2023-11-17 00:00:00-05:00,127.04562613275004,127.55950501919288,126.10681966568688,126.42304992675781,162700,0.0,0.0
2023-11-20 00:00:00-05:00,125.94869452214077,126.14634313771529,124.9407129710439,125.82022857666016,213900,0.0,0.0
2023-11-21 00:00:00-05:00,125.95858603909745,126.78869519292185,125.70164659392273,126.40328979492188,160600,0.0,0.0
2023-11-22 00:00:00-05:00,126.93691476594223,127.67808010915994,125.85975808610391,127.05551147460938,174800,0.0,0.0
2023-11-24 00:00:00-05:00,127.45078771659485,127.45078771659485,126.59104078362095,127.0159683227539,65900,0.0,0.0
2023-11-27 00:00:00-05:00,126.31435363167827,126.78870282520715,125.35577846732536,125.50401306152344,367500,0.0,0.0
2023-11-28 00:00:00-05:00,125.504004627321,125.51388894347652,124.01178954785065,124.13037872314453,218000,0.0,0.0
2023-11-29 00:00:00-05:00,124.16001994636261,124.9110696188559,123.44849999763464,123.89320373535156,331800,0.0,0.0
2023-11-30 00:00:00-05:00,123.97226939295874,125.63248027761452,123.33980882161605,125.39530944824219,301000,0.0,0.0
2023-12-01 00:00:00-05:00,124.93083848043351,127.02586119361783,124.93083848043351,126.59105682373047,218300,0.0,0.0
2023-12-04 00:00:00-05:00,125.94870483790406,127.36186805155403,125.39530374801691,126.90727996826172,192000,0.0,0.0
2023-12-05 00:00:00-05:00,126.73928570844643,127.17410516368075,124.39720028755862,124.50590515136719,178000,0.0,0.0
2023-12-06 00:00:00-05:00,124.90118504227478,125.80046929212959,124.39719048972401,124.88142395019531,179500,0.0,0.0
2023-12-07 00:00:00-05:00,124.75296012128835,125.6127147140196,124.50590498378766,125.00001525878906,254000,0.0,0.0
2023-12-08 00:00:00-05:00,124.87153784047376,125.99810856091534,124.14025681165745,125.82022857666016,265800,0.0,0.0
2023-12-11 00:00:00-05:00,125.76093770078381,126.17598848400344,124.8517691486293,126.0672836303711,338000,0.0,0.0
2023-12-12 00:00:00-05:00,126.1463510868967,126.5910548453198,125.1877759746455,125.97835540771484,210300,0.0,0.0
2023-12-13 00:00:00-05:00,125.68189215534058,127.47057651051817,125.68189215534058,127.07527923583984,425000,0.0,0.0
2023-12-14 00:00:00-05:00,127.55950271773703,128.47854053591945,125.38541311501618,125.8992919921875,412900,0.0,0.0
2023-12-15 00:00:00-05:00,125.66213330765346,127.06540472998513,124.48614839791895,124.49603271484375,713000,0.0,0.0
2023-12-18 00:00:00-05:00,125.21741451166595,125.71152474533498,124.39718971428961,125.55341339111328,240500,0.0,0.0
2023-12-19 00:00:00-05:00,126.20565001229838,126.62070838805917,124.54543912782937,124.74308776855469,659100,0.0,0.0
2023-12-20 00:00:00-05:00,124.53553939309275,125.44470794882234,123.98213834662378,124.0908432006836,346400,0.0,0.0
2023-12-21 00:00:00-05:00,124.75295640698745,124.75295640698745,123.3793304865428,124.42684936523438,421900,0.0,0.0
2023-12-22 00:00:00-05:00,124.91107389434772,125.54353441719309,124.63437335804339,124.78260040283203,312200,0.0,0.0
2023-12-26 00:00:00-05:00,124.6541318886724,125.3755361630872,124.11060760387191,124.34778594970703,274700,0.0,0.0
2023-12-27 00:00:00-05:00,124.63437705637008,124.98025273701381,123.5572127486232,123.80426788330078,283100,0.0,0.0
2023-12-28 00:00:00-05:00,123.5078022894211,124.31814280362717,122.93463258584202,123.72520446777344,343600,0.0,0.0
2023-12-29 00:00:00-05:00,123.71532421021986,123.88331988220698,122.1045200037436,122.163818359375,313500,0.0,0.0
2024-01-02 00:00:00-05:00,121.16571704448889,122.6381634898007,120.84948678362613,121.43253326416016,313100,0.0,0.0
2024-01-03 00:00:00-05:00,123.67579826718928,125.76094414531796,121.69935724826344,123.8833236694336,531700,0.0,0.0
2024-01-04 00:00:00-05:00,123.70544279171902,124.43672385242652,122.66780824839185,122.75675201416016,353300,0.0,0.0
2024-01-05 00:00:00-05:00,122.32193344846323,122.90498746956777,121.54123834128632,122.73698425292969,423000,0.0,0.0
2024-01-08 00:00:00-05:00,122.60851522989702,123.68567947872636,120.92854342178856,122.88521575927734,352400,0.0,0.0
2024-01-09 00:00:00-05:00,122.25276515945477,123.17181058624556,121.52148405261278,123.16192626953125,250300,0.0,0.0
2024-01-10 00:00:00-05:00,122.99392771839973,123.94261853371319,122.76664121593656,123.71533203125,279600,0.0,0.0
2024-01-11 00:00:00-05:00,123.90308518645588,125.47435972243426,123.46827328767989,125.34588623046875,323100,0.0,0.0
2024-01-12 00:00:00-05:00,126.38352064693153,126.46258009735882,124.43672503242341,124.94071960449219,231700,0.0,0.0
2024-01-16 00:00:00-05:00,124.39719304252597,125.32612271932483,124.03155628512354,125.31623840332031,257500,0.0,0.0
2024-01-17 00:00:00-05:00,124.45649695012426,125.77082453543308,124.40708290742177,125.19766235351562,336900,0.0,0.0
2024-01-18 00:00:00-05:00,125.82024377996669,128.47855200982383,124.82213888440117,127.61880493164062,444200,0.0,0.0
2024-01-19 00:00:00-05:00,128.18209008005715,129.91147598730586,127.02585880393394,129.25924682617188,418000,0.0,0.0
2024-01-22 00:00:00-05:00,129.35804569822244,130.25732989071665,129.02205437763564,129.64463806152344,266200,0.0,0.0
2024-01-23 00:00:00-05:00,130.2474847137708,130.2968987620915,128.79479915163492,130.27713012695312,217800,0.0,0.0
2024-01-24 00:00:00-05:00,130.5636832420236,130.73167891188575,129.00229309506915,129.23947143554688,294400,0.0,0.0
2024-01-25 00:00:00-05:00,130.474759807906,130.82064303679127,128.84420190955913,129.70394897460938,332300,0.0,0.0
2024-01-26 00:00:00-05:00,130.12886723227166,131.02815149954128,129.85216670065762,130.1486358642578,219900,0.0,0.0
2024-01-29 00:00:00-05:00,129.50630753208833,131.02816056121415,128.952906430588,130.69216918945312,187800,0.0,0.0
2024-01-30 00:00:00-05:00,130.47475945971385,131.52227084170357,130.07947726694195,130.69216918945312,228400,0.0,0.0
2024-01-31 00:00:00-05:00,131.2175488168734,131.6140753923471,128.03550435063644,128.74923706054688,537500,0.41,0.0
2024-02-01 00:00:00-05:00,129.32418547298803,129.9685203411413,128.48157975991825,129.36383056640625,298800,0.0,0.0
2024-02-02 00:00:00-05:00,128.82853516166915,129.57200543236544,127.56958793469315,128.96731567382812,344800,0.0,0.0
2024-02-05 00:00:00-05:00,128.00577179741288,130.30556552210692,126.9351726903174,129.5125274658203,319500,0.0,0.0
2024-02-06 00:00:00-05:00,129.34400751468976,130.2559959724917,128.17428812075116,129.9883575439453,369700,0.0,0.0
2024-02-07 00:00:00-05:00,130.26590766193826,131.267108845258,128.24366006025903,130.6525115966797,393000,0.0,0.0
2024-02-08 00:00:00-05:00,130.49390979357565,133.6660467963085,130.39477436732616,130.9697265625,620700,0.0,0.0
2024-02-09 00:00:00-05:00,130.9598295245484,137.9980218237225,130.36504717145576,137.7501983642578,650900,0.0,0.0
2024-02-12 00:00:00-05:00,137.94843452529844,139.2470268484113,136.31279084943992,136.41192626953125,491300,0.0,0.0
2024-02-13 00:00:00-05:00,135.49994444056586,136.13437183240478,133.80482548099658,134.74655151367188,275900,0.0,0.0
2024-02-14 00:00:00-05:00,135.07367289511177,136.26323742510704,133.99316640210938,135.9757537841797,335000,0.0,0.0
2024-02-15 00:00:00-05:00,135.97576415206808,136.61019155766678,133.39840943442317,133.8643035888672,471400,0.0,0.0
2024-02-16 00:00:00-05:00,134.19142649181865,136.79853382457387,133.8642977479947,136.30288696289062,453900,0.0,0.0
2024-02-20 00:00:00-05:00,135.94602900109788,138.91991035459364,135.75768076189232,138.4738311767578,373000,0.0,0.0
2024-02-21 00:00:00-05:00,137.86913947554837,138.8901708495271,137.77992666639122,138.7811279296875,276300,0.0,0.0
2024-02-22 00:00:00-05:00,139.24703328340902,141.180053056989,138.8505218366026,140.2383270263672,295700,0.0,0.0
2024-02-23 00:00:00-05:00,140.73396219891302,140.81326750687023,139.37589472425526,140.1292724609375,190300,0.0,0.0
2024-02-26 00:00:00-05:00,140.26806091989897,140.82318298112742,139.57415834336345,140.6844024658203,199200,0.0,0.0
2024-02-27 00:00:00-05:00,140.68439280321402,140.9421237065279,138.58285510834838,139.08840942382812,244600,0.0,0.0
2024-02-28 00:00:00-05:00,138.43415291770748,140.0103213254114,138.11694681348823,139.1875457763672,189600,0.0,0.0
2024-02-29 00:00:00-05:00,139.40565497538333,140.396948797008,138.6126168928949,139.2371368408203,250600,0.0,0.0
2024-03-01 00:00:00-05:00,138.6621693304686,139.5642351130347,138.3449480820494,139.06858825683594,151400,0.0,0.0
2024-03-04 00:00:00-05:00,139.46512794883685,140.88267083058346,139.33625491378967,140.7240753173828,260300,0.0,0.0
2024-03-05 00:00:00-05:00,141.03135139293929,141.9631698412631,140.50596697010832,141.2791748046875,190200,0.0,0.0
2024-03-06 00:00:00-05:00,141.68560621173435,142.38943141864434,141.2395270563974,141.82440185546875,184000,0.0,0.0
2024-03-07 00:00:00-05:00,143.24195224109585,143.87637965982492,142.58769471136006,143.39064025878906,250100,0.0,0.0
2024-03-08 00:00:00-05:00,143.45011379645075,143.80698012307482,141.7252573634442,141.84420776367188,185200,0.0,0.0
2024-03-11 00:00:00-04:00,141.54683652531014,142.13171136913695,140.74389095907273,141.49728393554688,226700,0.0,0.0
2024-03-12 00:00:00-04:00,141.5567547257704,141.60632243992973,140.24823967648902,141.17015075683594,242200,0.0,0.0
2024-03-13 00:00:00-04:00,141.7550071548542,141.7550071548542,139.70302181880368,139.9310302734375,336800,0.0,0.0
2024-03-14 00:00:00-04:00,140.12928235811054,140.3870132827191,139.13798862754268,139.70301818847656,235200,0.0,0.0
2024-03-15 00:00:00-04:00,138.82078168505194,141.17015835434754,138.52340563597713,139.77243041992188,599500,0.0,0.0
2024-03-18 00:00:00-04:00,139.70302038648921,140.06980935821068,137.72043289416052,138.0475616455078,299700,0.0,0.0
2024-03-19 00:00:00-04:00,137.67089007869433,139.09835559463502,137.67089007869433,138.29539489746094,253000,0.0,0.0
2024-03-20 00:00:00-04:00,138.41435230223198,138.85052397600484,137.92861291535908,138.7513885498047,220000,0.0,0.0
2024-03-21 00:00:00-04:00,139.08841825193014,140.3671956103983,138.08721704857123,139.91119384765625,255800,0.0,0.0
2024-03-22 00:00:00-04:00,140.77361081986902,141.20978246160044,139.8219773524016,140.35726928710938,276000,0.0,0.0
2024-03-25 00:00:00-04:00,139.9706758510705,142.79586911672604,139.9409382483535,141.71536254882812,316300,0.0,0.0
2024-03-26 00:00:00-04:00,141.58648848098767,143.05359899938549,141.3783101375535,141.95326232910156,314200,0.0,0.0
2024-03-27 00:00:00-04:00,142.41917220722638,143.8862827318502,142.41917220722638,143.4005584716797,218200,0.0,0.0
2024-03-28 00:00:00-04:00,143.55916383297742,144.08454829465626,142.39933686940833,142.6372528076172,247800,0.0,0.0
2024-04-01 00:00:00-04:00,142.53811857132533,142.53811857132533,140.88265985977688,141.05117797851562,204400,0.0,0.0
2024-04-02 00:00:00-04:00,140.60509657020089,140.60509657020089,139.16772371206562,139.4056396484375,202600,0.0,0.0
2024-04-03 00:00:00-04:00,139.44529455067843,139.96077155277405,138.65225649959498,139.65347290039062,258700,0.0,0.0
2024-04-04 00:00:00-04:00,140.59520497929628,141.50719348295237,139.7426916849742,140.51589965820312,403600,0.0,0.0
2024-04-05 00:00:00-04:00,140.14911948491763,141.51709461595203,139.72285529394162,140.49606323242188,288300,0.0,0.0
2024-04-08 00:00:00-04:00,140.43658653193245,141.14041176380232,139.16773171684926,139.28668212890625,312500,0.0,0.0
2024-04-09 00:00:00-04:00,139.19745233021874,139.8715398767991,138.1466834827859,139.08840942382812,242600,0.0,0.0
2024-04-10 00:00:00-04:00,137.76999877927764,138.99920845355638,137.2446143108546,138.18634033203125,200700,0.0,0.0
2024-04-11 00:00:00-04:00,138.04755907083242,138.8207669683444,137.24461357156548,137.918701171875,265300,0.0,0.0
2024-04-12 00:00:00-04:00,136.967049267021,137.74025714606825,134.776298651701,136.0054931640625,299200,0.0,0.0
2024-04-15 00:00:00-04:00,137.40322972923067,138.59277922513755,136.63002180059405,136.99679565429688,319600,0.0,0.0
2024-04-16 00:00:00-04:00,136.5903543367824,138.17643033118634,136.1641052997771,137.38339233398438,281700,0.0,0.0
2024-04-17 00:00:00-04:00,137.67086969395015,138.2656368202302,137.14548525906264,137.19503784179688,565400,0.0,0.0
2024-04-18 00:00:00-04:00,137.1851320847816,138.22599347635693,137.01661397390805,137.89886474609375,246600,0.0,0.0
2024-04-19 00:00:00-04:00,137.84930054424208,138.7018137377263,137.56183202448253,138.12686157226562,276600,0.0,0.0
2024-04-22 00:00:00-04:00,138.33502731615243,139.92108802823105,138.03763620578138,139.09832763671875,298800,0.0,0.0
2024-04-23 00:00:00-04:00,138.55312824028502,139.93102591361165,138.30530480892452,138.9298095703125,417200,0.0,0.0
2024-04-24 00:00:00-04:00,139.13860773601874,140.08309687938592,138.83040745274005,139.19825744628906,559200,0.41,0.0
2024-04-25 00:00:00-04:00,139.0292386706214,140.4310674806865,138.11457442322126,139.3672637939453,694400,0.0,0.0
2024-04-26 00:00:00-04:00,141.17671738557638,147.6489684748245,141.07729109393654,142.49900817871094,489500,0.0,0.0
2024-04-29 00:00:00-04:00,144.05989608090238,147.16181733326363,143.53297011620526,145.5313262939453,676700,0.0,0.0
2024-04-30 00:00:00-04:00,144.89503861467492,145.25295202466614,143.2247709779419,143.5429229736328,585100,0.0,0.0
2024-05-01 00:00:00-04:00,144.1493863720236,146.35651652986462,143.74175981802546,144.53712463378906,359600,0.0,0.0
2024-05-02 00:00:00-04:00,144.914913867979,145.8792912599076,144.44763759888693,145.07398986816406,356500,0.0,0.0
2024-05-03 00:00:00-04:00,146.25709550003984,146.2769837929879,144.00025211559725,145.95883178710938,303300,0.0,0.0
2024-05-06 00:00:00-04:00,146.9033104690389,148.21566464459445,146.30679825586762,148.17588806152344,260200,0.0,0.0
2024-05-07 00:00:00-04:00,147.46008217334202,149.50813634180696,147.46008217334202,148.85195922851562,392900,0.0,0.0
2024-05-08 00:00:00-04:00,148.8519676667531,149.99529422900792,148.6133536564871,149.91575622558594,223500,0.0,0.0
2024-05-09 00:00:00-04:00,150.12453415300365,150.8502975207552,147.76827976285352,148.21566772460938,299100,0.0,0.0
2024-05-10 00:00:00-04:00,148.08641386966042,148.1361270134608,147.23139937538733,147.62908935546875,186300,0.0,0.0
2024-05-13 00:00:00-04:00,147.66885717155736,148.6133462634333,146.00854125481663,147.01268005371094,167500,0.0,0.0
2024-05-14 00:00:00-04:00,147.44020100009575,147.45013756156888,146.61501128814115,147.04251098632812,137600,0.0,0.0
2024-05-15 00:00:00-04:00,147.102167082445,147.47995361006247,145.91906401390577,146.4261016845703,211100,0.0,0.0
2024-05-16 00:00:00-04:00,146.51557301812144,147.042498969268,145.58102052504745,146.68458557128906,235500,0.0,0.0
2024-05-17 00:00:00-04:00,146.99280706497723,147.31094389280457,146.27698023946283,146.8138427734375,169500,0.0,0.0
2024-05-20 00:00:00-04:00,146.73430448574354,147.54955760165925,146.1874902214491,147.31094360351562,163400,0.0,0.0
2024-05-21 00:00:00-04:00,147.08229020027764,147.817990190825,146.23721217995782,147.728515625,280400,0.0,0.0
2024-05-22 00:00:00-04:00,147.21152602409944,147.96711422959115,146.61499864007018,147.92733764648438,283300,0.0,0.0
2024-05-23 00:00:00-04:00,147.7981084397933,148.0864204140624,146.7044799091405,146.86355590820312,171700,0.0,0.0
2024-05-24 00:00:00-04:00,147.61913778568456,147.96711462234552,146.50563618088398,147.2313995361328,162300,0.0,0.0
2024-05-28 00:00:00-04:00,146.764117953418,146.92319393983948,144.97456620230014,145.85940551757812,318400,0.0,0.0
2024-05-29 00:00:00-04:00,144.8055455017125,145.84946085399403,143.67215559160385,144.000244140625,229700,0.0,0.0
2024-05-30 00:00:00-04:00,144.28857058679588,146.12783556029183,144.15931944589317,145.29270935058594,328100,0.0,0.0
2024-05-31 00:00:00-04:00,145.24301048494436,146.97292794967595,145.07399791424487,146.833740234375,358900,0.0,0.0
2024-06-03 00:00:00-04:00,147.6390352585539,147.6390352585539,145.43190503298203,147.30101013183594,266200,0.0,0.0
2024-06-04 00:00:00-04:00,146.79394812461462,147.52966321073654,145.84945907277913,147.33082580566406,287900,0.0,0.0
2024-06-05 00:00:00-04:00,146.86355577498975,147.34076860142255,146.2272669496386,147.06239318847656,229200,0.0,0.0
2024-06-06 00:00:00-04:00,147.1518720418501,147.1518720418501,144.5570035187933,145.11376953125,197600,0.0,0.0
2024-06-07 00:00:00-04:00,144.92485667565106,145.48160747169428,144.60670469487127,144.7061309814453,179100,0.0,0.0
2024-06-10 00:00:00-04:00,143.99030717125453,144.96462108446894,143.15518095992786,144.7458953857422,125800,0.0,0.0
2024-06-11 00:00:00-04:00,144.069842198694,144.8950318322786,143.51309140261802,144.6564178466797,147700,0.0,0.0
2024-06-12 00:00:00-04:00,145.39213888233263,145.4617251495329,143.234721873972,144.98451232910156,221300,0.0,0.0
2024-06-13 00:00:00-04:00,145.04416203536522,145.68045085271436,144.17921095389806,144.98451232910156,232400,0.0,0.0
2024-06-14 00:00:00-04:00,144.2487917043436,144.53711883402036,142.84696297947195,143.9107666015625,141500,0.0,0.0
2024-06-17 00:00:00-04:00,144.03007123818756,145.82957483514926,143.7318227074485,145.4816131591797,303800,0.0,0.0
2024-06-18 00:00:00-04:00,145.63074941518855,146.83374087939953,145.62081285345312,145.83953857421875,219900,0.0,0.0
2024-06-20 00:00:00-04:00,145.8097081220493,146.67465923985355,144.82544241638323,144.96463012695312,199900,0.0,0.0
2024-06-21 00:00:00-04:00,145.0242822893985,146.28692343756714,144.46753143769917,145.9986114501953,444100,0.0,0.0
2024-06-24 00:00:00-04:00,146.36644005855862,147.37057875723085,145.8196258482636,145.8693389892578,182900,0.0,0.0
2024-06-25 00:00:00-04:00,145.93894470307328,145.94889643479104,143.66222817714564,144.0201416015625,194500,0.0,0.0
2024-06-26 00:00:00-04:00,143.4136783501354,143.9505409043724,142.13116408870536,142.87681579589844,192400,0.0,0.0
2024-06-27 00:00:00-04:00,143.03587341308594,143.04582514463127,141.4451589090506,143.03587341308594,377300,0.0,0.0
2024-06-28 00:00:00-04:00,142.9463882562167,143.48326592890723,139.27777978400968,139.9936065673828,435100,0.0,0.0
2024-07-01 00:00:00-04:00,140.56031649992028,140.65972762098727,137.58764636312122,137.7367706298828,306400,0.0,0.0
2024-07-02 00:00:00-04:00,137.6771168664537,139.6854095648267,136.96129006644594,139.5859832763672,259400,0.0,0.0
2024-07-03 00:00:00-04:00,140.063219987868,140.58019424318394,139.75501971288125,140.4012451171875,143300,0.0,0.0
2024-07-05 00:00:00-04:00,140.17257383401406,140.61996179057115,138.91986935126823,140.0830841064453,207000,0.0,0.0
2024-07-08 00:00:00-04:00,140.8287476496575,141.67382566032194,140.67962337498633,140.68955993652344,249300,0.0,0.0
2024-07-09 00:00:00-04:00,140.0433415757156,140.45096817412028,138.93977637657352,139.22808837890625,238400,0.0,0.0
2024-07-10 00:00:00-04:00,139.93396267066512,140.808865480054,139.75501355255665,140.4708251953125,142000,0.0,0.0
2024-07-11 00:00:00-04:00,140.38135020760953,142.46918093443176,139.93396224338247,141.2661895751953,244500,0.0,0.0
2024-07-12 00:00:00-04:00,142.57854240098845,144.64648481567454,142.57854240098845,143.75169372558594,263900,0.0,0.0
2024-07-15 00:00:00-04:00,143.92070998156234,144.8453259480649,142.31010721643665,142.59841918945312,319900,0.0,0.0
2024-07-16 00:00:00-04:00,143.01598774998143,144.45757785765295,143.01598774998143,143.72186279296875,178800,0.0,0.0
2024-07-17 00:00:00-04:00,143.50315217288863,144.9248693091611,143.50315217288863,144.0201416015625,242300,0.0,0.0
2024-07-18 00:00:00-04:00,143.77158413178512,146.39627739473178,143.7616475708671,145.43190002441406,434200,0.0,0.0
2024-07-19 00:00:00-04:00,145.7401127614944,145.7401127614944,143.82130958785305,145.09388732910156,251200,0.0,0.0
2024-07-22 00:00:00-04:00,145.14359967477395,146.7044894018996,144.40788450924526,146.33663940429688,235700,0.0,0.0
2024-07-23 00:00:00-04:00,147.01267493335766,147.64896373659573,144.82543312037194,145.1932830810547,234500,0.0,0.0
2024-07-24 00:00:00-04:00,145.22312418531487,145.77987499600405,143.06569203841158,143.30430603027344,250600,0.0,0.0
2024-07-25 00:00:00-04:00,142.4466137172535,143.66334017802635,140.84093471363238,141.11021423339844,558100,0.45,0.0
2024-07-26 00:00:00-04:00,142.7458185274977,150.8839040725973,141.9679134034649,146.26634216308594,562800,0.0,0.0
2024-07-29 00:00:00-04:00,146.18654807363913,147.9518012557539,144.78032917910988,147.4032745361328,390900,0.0,0.0
2024-07-30 00:00:00-04:00,146.98440955393974,147.50300282044066,145.01969618270712,145.35877990722656,411000,0.0,0.0
2024-07-31 00:00:00-04:00,146.10677238813136,148.4504707285892,145.0197017612093,146.58547973632812,280600,0.0,0.0
2024-08-01 00:00:00-04:00,146.48575417142177,149.13860271713426,145.03963404176758,146.63534545898438,335300,0.0,0.0
2024-08-02 00:00:00-04:00,146.1865607027143,146.60543153811187,143.36415499050057,145.2989501953125,213500,0.0,0.0
2024-08-05 00:00:00-04:00,143.04500195071893,143.04500195071893,139.10560747243943,140.30238342285156,448500,0.0,0.0
2024-08-06 00:00:00-04:00,140.9506421425725,145.69785981497913,140.7312314517885,144.5409698486328,476000,0.0,0.0
2024-08-07 00:00:00-04:00,145.61807332642232,146.86471806655007,143.08489791032852,143.2145538330078,353600,0.0,0.0
2024-08-08 00:00:00-04:00,144.07225793334294,145.76769187651146,144.07225793334294,145.16929626464844,268600,0.0,0.0
2024-08-09 00:00:00-04:00,145.01970173177108,145.01970173177108,143.08490654350197,143.56361389160156,263200,0.0,0.0
2024-08-12 00:00:00-04:00,143.58356293459363,143.7929907393466,142.38678696822322,142.90538024902344,221100,0.0,0.0
2024-08-13 00:00:00-04:00,143.12479067928683,144.9099945543652,142.71590275055541,143.98248291015625,212000,0.0,0.0
2024-08-14 00:00:00-04:00,143.74314177678474,144.42130926648593,143.10486022619372,143.5137481689453,115700,0.0,0.0
2024-08-15 00:00:00-04:00,144.61078772865739,146.94450299558522,144.61078772865739,146.61538696289062,277500,0.0,0.0
2024-08-16 00:00:00-04:00,145.7178086429149,146.4458448984164,145.21915075490517,146.326171875,250600,0.0,0.0
2024-08-19 00:00:00-04:00,145.9272513224637,147.33345499792665,145.52831588225743,146.57550048828125,191200,0.0,0.0
2024-08-20 00:00:00-04:00,146.58547636304425,147.91190824245643,146.58547636304425,147.7124481201172,387200,0.0,0.0
2024-08-21 00:00:00-04:00,147.77227873284713,149.16852996911774,147.06419304414976,148.92916870117188,267300,0.0,0.0
2024-08-22 00:00:00-04:00,149.16853288609883,149.99629161604025,148.27093952712292,148.590087890625,200400,0.0,0.0
2024-08-23 00:00:00-04:00,149.25828872832403,150.1259486188488,149.03887803129888,150.03619384765625,221400,0.0,0.0
2024-08-26 00:00:00-04:00,150.27553600322852,152.26019990468,149.7369921722213,149.75694274902344,235500,0.0,0.0
2024-08-27 00:00:00-04:00,149.6073354575319,151.133227391442,149.4377936001898,150.7941436767578,208300,0.0,0.0
2024-08-28 00:00:00-04:00,150.5248764586845,151.56209348205394,150.5248764586845,151.13323974609375,249000,0.0,0.0
2024-08-29 00:00:00-04:00,152.14052586050624,152.49956015138338,150.8041263625091,151.87124633789062,187100,0.0,0.0
2024-08-30 00:00:00-04:00,151.79146048136437,153.0281375417213,151.23296607276166,152.77880859375,178500,0.0,0.0
2024-09-03 00:00:00-04:00,151.7017037750138,151.97098329637666,149.32808735093408,149.6372528076172,362400,0.0,0.0
2024-09-04 00:00:00-04:00,149.19845240971176,150.49495079841,149.19845240971176,150.32540893554688,175800,0.0,0.0
2024-09-05 00:00:00-04:00,150.67447925817638,151.35264672627906,149.54750748684052,150.31544494628906,200600,0.0,0.0
2024-09-06 00:00:00-04:00,149.9763613557829,152.70899702647708,149.9763613557829,151.9709930419922,319100,0.0,0.0
2024-09-09 00:00:00-04:00,152.16047510581276,152.64915009618142,151.03350341028641,151.5022430419922,241500,0.0,0.0
2024-09-10 00:00:00-04:00,151.46235157142956,152.37988031700135,151.03351306529763,151.1033172607422,158100,0.0,0.0
2024-09-11 00:00:00-04:00,150.38525079268496,150.4750207850162,148.23106011554742,150.43511962890625,178000,0.0,0.0
2024-09-12 00:00:00-04:00,150.4849887540154,151.60197764192228,149.56745999354442,151.5521240234375,200400,0.0,0.0
2024-09-13 00:00:00-04:00,151.78149156962914,152.5992825990635,151.492261470345,151.87124633789062,138600,0.0,0.0
2024-09-16 00:00:00-04:00,152.62921458132197,152.7588705145806,151.66183218445363,152.57936096191406,182900,0.0,0.0
2024-09-17 00:00:00-04:00,153.5866296991098,155.15242277397783,151.46234222382526,152.61923217773438,259900,0.0,0.0
2024-09-18 00:00:00-04:00,153.3472690170848,155.07263627515385,152.30009962123864,152.6591339111328,214200,0.0,0.0
2024-09-19 00:00:00-04:00,154.60390786200904,158.38372825071872,154.60390786200904,156.47885131835938,412400,0.0,0.0
2024-09-20 00:00:00-04:00,155.8904363617549,155.8904363617549,154.06534655021557,155.49151611328125,663300,0.0,0.0
2024-09-23 00:00:00-04:00,155.75080963595366,156.48882882047508,154.32465531926172,155.5413818359375,315800,0.0,0.0
2024-09-24 00:00:00-04:00,155.7607751810832,156.65836853663214,155.61118389740747,156.20957946777344,246200,0.0,0.0
2024-09-25 00:00:00-04:00,156.87777486028946,157.44623694025017,155.4516053850471,156.71820068359375,284100,0.0,0.0
2024-09-26 00:00:00-04:00,157.5160583780924,158.6330471936873,157.2766971099658,157.9548797607422,371600,0.0,0.0
2024-09-27 00:00:00-04:00,158.25407181382246,161.11637865217875,157.83520098285544,159.46083068847656,354300,0.0,0.0
2024-09-30 00:00:00-04:00,158.86243164794053,159.98940340400793,158.50339734091747,159.76002502441406,289800,0.0,0.0
2024-10-01 00:00:00-04:00,160.10908102182546,160.10908102182546,158.62309013398428,159.54061889648438,192200,0.0,0.0
2024-10-02 00:00:00-04:00,159.4309042020019,159.6802331516974,157.53601027144867,158.32388305664062,186900,0.0,0.0
2024-10-03 00:00:00-04:00,157.56593495409092,160.02930629497408,156.21955248369235,158.5133819580078,367000,0.0,0.0
2024-10-04 00:00:00-04:00,159.51069006003982,161.0365820029643,158.90232681876836,160.1489715576172,350500,0.0,0.0
2024-10-07 00:00:00-04:00,158.96217139030824,159.21150035071827,157.58587065913858,158.26405334472656,223300,0.0,0.0
2024-10-08 00:00:00-04:00,157.85514229856898,158.59316146287298,156.67831696887936,158.2440948486328,205900,0.0,0.0
2024-10-09 00:00:00-04:00,157.92496457453083,159.62039840768432,157.69557098143002,159.27133178710938,152600,0.0,0.0
2024-10-10 00:00:00-04:00,157.62577532209792,158.9522072471334,157.62577532209792,158.79263305664062,168500,0.0,0.0
2024-10-11 00:00:00-04:00,160.50801550631274,161.48538077936988,159.91960280646023,161.1163787841797,194400,0.0,0.0
2024-10-14 00:00:00-04:00,164.5471496015545,167.3097035833241,163.02125754964115,166.74124145507812,469700,0.0,0.0
2024-10-15 00:00:00-04:00,166.8708837749407,169.2045990501098,166.0431098506034,168.2272186279297,397300,0.0,0.0
2024-10-16 00:00:00-04:00,168.2471783490178,168.74583626660103,165.47464154468156,165.5943145751953,330000,0.0,0.0
2024-10-17 00:00:00-04:00,166.53178529804745,167.86820001373155,166.07302855953967,167.43934631347656,238200,0.0,0.0
2024-10-18 00:00:00-04:00,168.64610780732278,168.64610780732278,167.32964364723057,168.1773681640625,171500,0.0,0.0
2024-10-21 00:00:00-04:00,168.01780020340925,168.0377507811335,165.85362666420463,165.883544921875,217900,0.0,0.0
2024-10-22 00:00:00-04:00,165.27517443013002,165.92342360843475,164.3676134062384,165.36492919921875,228500,0.0,0.0
2024-10-23 00:00:00-04:00,166.06305748263202,167.52911300642305,165.71400606419698,167.1999969482422,318100,0.0,0.0
2024-10-24 00:00:00-04:00,168.32000732421875,168.3300018310547,166.14999389648438,166.5500030517578,547300,0.45,0.0
2024-10-25 00:00:00-04:00,168.9199981689453,169.85000610351562,164.61000061035156,168.91000366210938,518900,0.0,0.0
2024-10-28 00:00:00-04:00,169.89999389648438,171.41000366210938,168.75999450683594,169.10000610351562,350000,0.0,0.0
2024-10-29 00:00:00-04:00,169.02999877929688,169.49000549316406,167.63999938964844,168.6999969482422,338100,0.0,0.0
2024-10-30 00:00:00-04:00,168.35000610351562,170.1999969482422,168.1199951171875,169.02999877929688,290300,0.0,0.0
2024-10-31 00:00:00-04:00,169.08999633789062,170.27999877929688,167.86000061035156,167.91000366210938,329900,0.0,0.0
2024-11-01 00:00:00-04:00,168.10000610351562,170.99000549316406,167.6199951171875,169.41000366210938,316300,0.0,0.0
2024-11-04 00:00:00-05:00,169.6300048828125,170.57000732421875,168.17999267578125,168.25999450683594,191800,0.0,0.0
2024-11-05 00:00:00-05:00,167.74000549316406,170.36000061035156,167.74000549316406,170.30999755859375,206200,0.0,0.0
2024-11-06 00:00:00-05:00,175.14999389648438,175.14999389648438,172.13999938964844,173.16000366210938,264100,0.0,0.0
2024-11-07 00:00:00-05:00,174.1999969482422,175.4600067138672,173.5399932861328,174.7100067138672,412300,0.0,0.0
2024-11-08 00:00:00-05:00,174.6999969482422,177.83999633789062,174.49000549316406,175.75999450683594,309200,0.0,0.0
2024-11-11 00:00:00-05:00,176.32000732421875,178.02999877929688,175.89999389648438,176.14999389648438,189100,0.0,0.0
2024-11-12 00:00:00-05:00,176.64999389648438,177.24000549316406,174.9499969482422,175.6999969482422,179800,0.0,0.0
2024-11-13 00:00:00-05:00,175.5,176.38999938964844,175.0500030517578,175.5,168400,0.0,0.0
2024-11-14 00:00:00-05:00,175.14999389648438,175.7899932861328,173.91000366210938,174.10000610351562,198200,0.0,0.0
2024-11-15 00:00:00-05:00,172.97000122070312,173.75999450683594,166.1699981689453,166.49000549316406,620500,0.0,0.0
2024-11-18 00:00:00-05:00,166.38999938964844,167.82000732421875,164.3300018310547,166.69000244140625,384400,0.0,0.0
2024-11-19 00:00:00-05:00,166.4199981689453,167.6699981689453,166.1999969482422,166.89999389648438,287600,0.0,0.0
2024-11-20 00:00:00-05:00,167.0,168.94000244140625,165.64999389648438,168.72999572753906,221800,0.0,0.0
2024-11-21 00:00:00-05:00,168.69000244140625,170.22999572753906,167.74000549316406,169.8800048828125,205100,0.0,0.0
2024-11-22 00:00:00-05:00,170.17999267578125,172.07000732421875,170.17999267578125,171.50999450683594,241600,0.0,0.0
2024-11-25 00:00:00-05:00,172.0500030517578,174.02000427246094,171.74000549316406,172.5,270100,0.0,0.0
2024-11-26 00:00:00-05:00,172.86000061035156,172.86000061035156,171.16000366210938,172.0399932861328,140300,0.0,0.0
2024-11-27 00:00:00-05:00,172.6699981689453,173.8800048828125,171.52000427246094,171.72999572753906,167200,0.0,0.0
2024-11-29 00:00:00-05:00,172.58999633789062,173.49000549316406,172.08999633789062,172.9600067138672,117300,0.0,0.0
2024-12-02 00:00:00-05:00,172.97999572753906,173.11000061035156,170.83999633789062,172.75999450683594,170900,0.0,0.0
2024-12-03 00:00:00-05:00,173.4499969482422,173.4499969482422,171.08999633789062,172.39999389648438,160100,0.0,0.0
2024-12-04 00:00:00-05:00,171.88999938964844,172.88999938964844,171.02999877929688,172.58999633789062,173400,0.0,0.0
2024-12-05 00:00:00-05:00,172.00999450683594,172.44000244140625,170.52999877929688,171.10000610351562,245000,0.0,0.0
2024-12-06 00:00:00-05:00,171.60000610351562,172.64999389648438,170.85000610351562,171.14999389648438,209200,0.0,0.0
2024-12-09 00:00:00-05:00,171.55999755859375,173.47000122070312,170.22999572753906,170.7899932861328,301700,0.0,0.0
2024-12-10 00:00:00-05:00,170.72000122070312,171.3699951171875,168.19000244140625,170.91000366210938,287000,0.0,0.0
2024-12-11 00:00:00-05:00,171.8800048828125,174.10000610351562,171.75,172.30999755859375,418600,0.0,0.0
2024-12-12 00:00:00-05:00,171.6699981689453,172.60000610351562,170.77999877929688,171.63999938964844,178300,0.0,0.0
2024-12-13 00:00:00-05:00,170.91000366210938,171.0,169.82000732421875,170.1999969482422,153200,0.0,0.0
2024-12-16 00:00:00-05:00,170.13999938964844,170.92999267578125,167.58999633789062,167.6300048828125,236100,0.0,0.0
2024-12-17 00:00:00-05:00,166.89999389648438,166.91000366210938,162.83999633789062,163.08999633789062,511900,0.0,0.0
2024-12-18 00:00:00-05:00,163.69000244140625,164.4199981689453,157.91000366210938,158.2100067138672,468600,0.0,0.0
2024-12-19 00:00:00-05:00,158.50999450683594,161.57000732421875,158.22999572753906,158.8699951171875,404700,0.0,0.0
2024-12-20 00:00:00-05:00,158.72000122070312,159.77999877929688,157.47000122070312,158.17999267578125,730200,0.0,0.0
2024-12-23 00:00:00-05:00,157.1699981689453,158.89999389648438,156.9600067138672,158.52000427246094,194900,0.0,0.0
2024-12-24 00:00:00-05:00,158.77999877929688,159.4199981689453,157.9199981689453,159.35000610351562,100500,0.0,0.0
2024-12-26 00:00:00-05:00,158.4199981689453,159.6300048828125,158.4199981689453,158.85000610351562,164500,0.0,0.0
2024-12-27 00:00:00-05:00,157.82000732421875,159.5800018310547,157.61000061035156,158.14999389648438,145000,0.0,0.0
2024-12-30 00:00:00-05:00,157.0,157.49000549316406,155.0,156.72999572753906,221700,0.0,0.0
2024-12-31 00:00:00-05:00,157.27999877929688,158.25,156.17999267578125,157.10000610351562,317100,0.0,0.0
2025-01-02 00:00:00-05:00,157.64999389648438,158.11000061035156,153.4499969482422,154.16000366210938,239400,0.0,0.0
2025-01-03 00:00:00-05:00,154.0399932861328,155.72000122070312,152.8699951171875,155.5,250700,0.0,0.0
2025-01-06 00:00:00-05:00,154.0,154.63999938964844,151.44000244140625,152.9199981689453,369000,0.0,0.0
2025-01-07 00:00:00-05:00,155.9199981689453,156.05999755859375,152.60000610351562,153.42999267578125,361200,0.0,0.0
2025-01-08 00:00:00-05:00,152.88999938964844,154.25999450683594,152.08999633789062,154.14999389648438,228600,0.0,0.0
2025-01-10 00:00:00-05:00,152.72000122070312,154.3000030517578,152.5800018310547,153.4499969482422,350800,0.0,0.0
2025-01-13 00:00:00-05:00,152.92999267578125,154.6999969482422,152.92999267578125,153.88999938964844,349300,0.0,0.0
2025-01-14 00:00:00-05:00,154.80999755859375,155.4499969482422,153.47999572753906,154.61000061035156,196900,0.0,0.0
2025-01-15 00:00:00-05:00,156.1199951171875,156.9199981689453,154.1699981689453,155.55999755859375,206100,0.0,0.0
2025-01-16 00:00:00-05:00,155.88999938964844,157.1699981689453,155.30999755859375,156.41000366210938,346300,0.0,0.0
2025-01-17 00:00:00-05:00,156.97000122070312,157.9499969482422,155.67999267578125,156.08999633789062,231900,0.0,0.0
2025-01-21 00:00:00-05:00,156.72000122070312,160.23880004882812,157.50999450683594,159.8300018310547,270872,0.0,0.0
