Date,Open,High,Low,Close,Volume,Dividends,Stock Splits
2022-01-03 00:00:00-05:00,117.7417776425436,118.28028717137072,114.71264686960691,116.1839370727539,234900,0.0,0.0
2022-01-04 00:00:00-05:00,116.35702650721244,118.20335111744194,115.35693217584434,116.72244262695312,337300,0.0,0.0
2022-01-05 00:00:00-05:00,116.58782639409505,119.37655025090086,116.58782639409505,118.3379898071289,367600,0.0,0.0
2022-01-06 00:00:00-05:00,118.79956707882455,119.24191523882962,117.32827687917592,117.8475570678711,231900,0.0,0.0
2022-01-07 00:00:00-05:00,118.01102655202445,119.03996854306524,117.28980532456666,118.93418884277344,335100,0.0,0.0
2022-01-10 00:00:00-05:00,118.23218928382384,119.13612217799371,117.0109246460048,117.36672973632812,398400,0.0,0.0
2022-01-11 00:00:00-05:00,117.58790633261613,118.26105053877625,116.09738688249904,117.81869506835938,135500,0.0,0.0
2022-01-12 00:00:00-05:00,117.62638846449279,118.28029608591315,115.99162307926325,116.6455307006836,206600,0.0,0.0
2022-01-13 00:00:00-05:00,117.0013198852539,117.63599811947786,115.75120742901723,117.0013198852539,193200,0.0,0.0
2022-01-14 00:00:00-05:00,116.62627457920011,116.82821563406158,115.27038254323271,116.53011322021484,179000,0.0,0.0
2022-01-18 00:00:00-05:00,115.98198654610756,116.74167376186436,114.27028939472906,115.7511978149414,232500,0.0,0.0
2022-01-19 00:00:00-05:00,116.12624673954012,117.22250252012462,115.87622130321522,116.76091766357422,252600,0.0,0.0
2022-01-20 00:00:00-05:00,116.18394023513841,117.61676446284861,114.25106514278475,114.27030181884766,297700,0.0,0.0
2022-01-21 00:00:00-05:00,114.64532720068591,115.4627097890764,111.38540784775036,111.91429901123047,351800,0.0,0.0
2022-01-24 00:00:00-05:00,111.15461293101922,112.75091944863918,109.65447511379894,112.53936004638672,329300,0.0,0.0
2022-01-25 00:00:00-05:00,110.31800511434675,112.45282121802009,108.76016455140191,111.5777359008789,470000,0.0,0.0
2022-01-26 00:00:00-05:00,111.33733863733565,113.03942506979597,110.01991238148847,110.76998138427734,1542500,0.0,0.0
2022-01-27 00:00:00-05:00,111.33732822660114,113.76063575617066,108.34666349702474,109.2890625,263900,0.0,0.0
2022-01-28 00:00:00-05:00,109.46215014054405,110.68341484216155,108.1350984033289,110.63533782958984,323100,0.0,0.0
2022-01-31 00:00:00-05:00,110.59687389266274,112.83746227719654,109.84680498536767,112.79900360107422,486300,0.0,0.0
2022-02-01 00:00:00-05:00,112.59705750622794,114.36645744640926,111.98161596268015,112.97209930419922,214000,0.0,0.0
2022-02-02 00:00:00-05:00,112.58618462678974,112.89490395553123,111.92051294445771,112.5090103149414,363600,0.38,0.0
2022-02-03 00:00:00-05:00,112.33537656458691,113.24223562472159,110.8593117637281,111.12944030761719,167700,0.0,0.0
2022-02-04 00:00:00-05:00,110.63739672883116,111.93980618442228,109.65335615540329,111.19695281982422,242700,0.0,0.0
2022-02-07 00:00:00-05:00,111.54426568873583,111.9398088933551,110.2997387778026,110.69528198242188,263300,0.0,0.0
2022-02-08 00:00:00-05:00,110.9461323342607,112.33537321622518,110.69529553936142,111.95912170410156,204200,0.0,0.0
2022-02-09 00:00:00-05:00,112.95280592601063,113.51236206912023,112.10382216116841,112.44149017333984,295900,0.0,0.0
2022-02-10 00:00:00-05:00,111.44778765062294,113.1168064556886,109.6533615010634,110.56986999511719,267100,0.0,0.0
2022-02-11 00:00:00-05:00,110.98470923620984,112.33535910619734,108.89120598597648,109.70159149169922,230600,0.0,0.0
2022-02-14 00:00:00-05:00,109.70158364505593,110.47338561854389,108.4763559246266,110.07783508300781,266600,0.0,0.0
2022-02-15 00:00:00-05:00,110.61809940862902,112.03627394220578,109.40251387654268,110.07783508300781,263000,0.0,0.0
2022-02-16 00:00:00-05:00,110.22255845732707,111.02330178636964,109.11309578413493,110.65669250488281,271400,0.0,0.0
2022-02-17 00:00:00-05:00,109.94278501710231,112.16171045663877,109.32534630288262,111.53462219238281,362400,0.0,0.0
2022-02-18 00:00:00-05:00,112.18100090372779,117.23628307832412,110.38656736106135,114.26486206054688,462300,0.0,0.0
2022-02-22 00:00:00-05:00,114.32274818353467,115.94352668004836,113.1843441519304,114.90159606933594,437200,0.0,0.0
2022-02-23 00:00:00-05:00,115.51902093577635,116.06892746537808,113.4544590625032,113.54129028320312,321100,0.0,0.0
2022-02-24 00:00:00-05:00,112.17135076836817,113.20363179146504,110.67599439758388,112.75020599365234,349300,0.0,0.0
2022-02-25 00:00:00-05:00,113.02997495037894,117.31345469342202,112.70195652511408,116.7056655883789,260100,0.0,0.0
2022-02-28 00:00:00-05:00,115.25856169342619,117.7283167242068,115.07525703208054,117.58360290527344,316300,0.0,0.0
2022-03-01 00:00:00-05:00,117.6607785974539,118.60623578727447,114.3516894737572,114.90159606933594,325700,0.0,0.0
2022-03-02 00:00:00-05:00,114.89193336393714,115.82774089638312,113.8403606838562,114.20696258544922,435100,0.0,0.0
2022-03-03 00:00:00-05:00,114.68934035279901,115.52867449997193,113.27116572960624,115.12348175048828,196100,0.0,0.0
2022-03-04 00:00:00-05:00,113.8886162460505,116.14612525116544,113.54130603596353,115.95317840576172,206700,0.0,0.0
2022-03-07 00:00:00-05:00,115.1041868882178,116.10752660990363,112.34500449369422,112.41253662109375,337300,0.0,0.0
2022-03-08 00:00:00-05:00,112.83703396810192,114.12015181149354,106.1609731390954,106.3056869506836,382800,0.0,0.0
2022-03-09 00:00:00-05:00,107.2607780346636,110.34797142767376,107.2607780346636,109.277099609375,224800,0.0,0.0
2022-03-10 00:00:00-05:00,107.8878691733967,109.65336139286545,107.51161769848693,108.3027114868164,223200,0.0,0.0
2022-03-11 00:00:00-05:00,109.3060575309679,109.71125031809136,108.28341865241075,108.34130859375,237100,0.0,0.0
2022-03-14 00:00:00-04:00,108.84296216785393,111.82403986524349,108.79472178241275,110.4830322265625,173800,0.0,0.0
2022-03-15 00:00:00-04:00,111.03294489917319,112.80808666313702,110.06819602062433,112.69231414794922,199500,0.0,0.0
2022-03-16 00:00:00-04:00,113.57023670156563,114.91123702487893,110.32867995098754,112.865966796875,266800,0.0,0.0
2022-03-17 00:00:00-04:00,113.10716948466113,114.3324048233584,111.20661279739497,114.23593139648438,163300,0.0,0.0
2022-03-18 00:00:00-04:00,113.93684878279872,114.64111875032208,112.17135644925892,113.58953857421875,286800,0.0,0.0
2022-03-21 00:00:00-04:00,113.57989501513207,114.48675400620311,112.5572561419963,114.47711181640625,309100,0.0,0.0
2022-03-22 00:00:00-04:00,115.55762397532759,116.21365353259448,113.22293336522634,113.52200317382812,294100,0.0,0.0
2022-03-23 00:00:00-04:00,113.64741513095844,113.93683536372131,110.01995746882471,110.62774658203125,256800,0.0,0.0
2022-03-24 00:00:00-04:00,110.9461163878804,112.12311114810201,109.98136754972492,111.76615142822266,210100,0.0,0.0
2022-03-25 00:00:00-04:00,112.73088816973151,113.12643868394628,111.91085321738353,113.10713958740234,148000,0.0,0.0
2022-03-28 00:00:00-04:00,113.29046465727251,113.42552891567145,110.95577406443361,112.38359832763672,167300,0.0,0.0
2022-03-29 00:00:00-04:00,113.3676525597173,115.37432480627777,113.3676525597173,115.11384582519531,184700,0.0,0.0
2022-03-30 00:00:00-04:00,115.35501608258276,115.35501608258276,114.07189838581304,114.63145446777344,156600,0.0,0.0
2022-03-31 00:00:00-04:00,114.2262695488852,115.60586074997394,113.32905279068832,113.35799407958984,211200,0.0,0.0
2022-04-01 00:00:00-04:00,113.98507508882619,115.42254877643136,113.15539051090524,114.82440185546875,400800,0.0,0.0
2022-04-04 00:00:00-04:00,114.53500122792907,114.53500122792907,111.13908066253808,114.23593139648438,286300,0.0,0.0
2022-04-05 00:00:00-04:00,113.50271333845193,115.00771931724746,113.44482339741732,113.57989501953125,225300,0.0,0.0
2022-04-06 00:00:00-04:00,113.12644240478357,114.72792152951457,112.24851749437671,114.16836547851562,194300,0.0,0.0
2022-04-07 00:00:00-04:00,113.75354529377849,116.34871480598619,112.51866053027139,115.76986694335938,331900,0.0,0.0
2022-04-08 00:00:00-04:00,115.58656100312787,117.92125888759224,115.58656100312787,117.13016510009766,305300,0.0,0.0
2022-04-11 00:00:00-04:00,116.86003632903035,117.98879818158056,114.76653289794922,114.76653289794922,208000,0.0,0.0
2022-04-12 00:00:00-04:00,115.02702064288923,115.95317875240647,112.29677934560748,112.8852767944336,187400,0.0,0.0
2022-04-13 00:00:00-04:00,112.76950236140587,113.840374267504,112.76950236140587,113.72460174560547,120200,0.0,0.0
2022-04-14 00:00:00-04:00,113.28082738620076,114.51570494567278,112.83704372329368,113.26153564453125,163300,0.0,0.0
2022-04-18 00:00:00-04:00,112.66337132113506,113.39658251974802,109.57617789610633,109.99102020263672,137100,0.0,0.0
2022-04-19 00:00:00-04:00,110.53129072171147,113.49306980600967,109.50865915476277,113.09752655029297,221600,0.0,0.0
2022-04-20 00:00:00-04:00,113.82107578973465,115.528678064067,113.19398754735957,115.28749084472656,141200,0.0,0.0
2022-04-21 00:00:00-04:00,116.01104916745051,116.10752258032313,114.16837533165025,114.74723052978516,178200,0.0,0.0
2022-04-22 00:00:00-04:00,114.41920886138898,114.41920886138898,112.32570568334667,112.5090103149414,179900,0.0,0.0
2022-04-25 00:00:00-04:00,112.39324592982716,112.39324592982716,108.2255310103666,111.33202362060547,379600,0.0,0.0
2022-04-26 00:00:00-04:00,110.70287261894532,111.65144601745483,106.89888282504552,107.03439331054688,295300,0.38,0.0
2022-04-27 00:00:00-04:00,107.38285376112813,109.36711871341065,107.0247146773615,107.5377197265625,231500,0.0,0.0
2022-04-28 00:00:00-04:00,107.6151462267897,108.64115622818377,106.03741289080882,108.50564575195312,289200,0.0,0.0
2022-04-29 00:00:00-04:00,108.91217939267737,112.71616900359386,108.91217939267737,111.14811706542969,640200,0.0,0.0
2022-05-02 00:00:00-04:00,111.71920483655906,113.21950904019587,108.47661974151622,109.7542953491211,457000,0.0,0.0
2022-05-03 00:00:00-04:00,109.36712827929203,111.67082156405276,109.02835202705322,110.1801986694336,225400,0.0,0.0
2022-05-04 00:00:00-04:00,109.72524304803844,113.03558292357566,109.105764500035,113.00654602050781,346900,0.0,0.0
2022-05-05 00:00:00-04:00,111.78696359025083,112.45484201454217,108.28303883618455,109.18321990966797,179000,0.0,0.0
2022-05-06 00:00:00-04:00,108.10879345428657,108.13783035789473,106.24067634623638,107.66354370117188,331800,0.0,0.0
2022-05-09 00:00:00-04:00,106.47299250713762,107.53772095525542,103.2400888247913,103.57886505126953,276700,0.0,0.0
2022-05-10 00:00:00-04:00,104.11121333570745,105.14690475468782,100.60728908436653,101.18804931640625,411800,0.0,0.0
2022-05-11 00:00:00-04:00,101.0428628069812,103.9757084124212,100.19108158016333,100.72344207763672,297800,0.0,0.0
2022-05-12 00:00:00-04:00,100.39434254297358,103.24007729717643,99.93941135331345,103.03680419921875,389300,0.0,0.0
2022-05-13 00:00:00-04:00,103.56917091667198,104.81780947090483,103.33686830197682,104.06282043457031,226900,0.0,0.0
2022-05-16 00:00:00-04:00,103.84987471206016,104.94363994825231,102.94001233032779,104.85652923583984,202500,0.0,0.0
2022-05-17 00:00:00-04:00,106.5988151067139,106.850480596032,104.75006073439316,105.4663314819336,311200,0.0,0.0
2022-05-18 00:00:00-04:00,104.52742413508254,105.40824958776734,100.24914806858547,100.73311614990234,325900,0.0,0.0
2022-05-19 00:00:00-04:00,100.07493026216191,101.24613226149188,98.98116493669698,100.17172241210938,357000,0.0,0.0
2022-05-20 00:00:00-04:00,101.61394470524795,101.92368399135758,94.07372088192736,96.52259826660156,796300,0.0,0.0
2022-05-23 00:00:00-04:00,97.71315567249178,101.23644282217688,96.47419852773663,100.87831115722656,545200,0.0,0.0
2022-05-24 00:00:00-04:00,101.1493239752876,102.23341508215111,99.52319100737557,101.58489227294922,567400,0.0,0.0
2022-05-25 00:00:00-04:00,100.16204494399477,101.89464430772557,99.1941087080584,101.10093688964844,493400,0.0,0.0
2022-05-26 00:00:00-04:00,102.31084616269354,103.52076632727017,101.90431475973978,103.1142349243164,188200,0.0,0.0
2022-05-27 00:00:00-04:00,103.5304576215943,105.43729316422942,103.5304576215943,105.39857482910156,178000,0.0,0.0
2022-05-31 00:00:00-04:00,104.6145426393693,105.92125498708732,102.94000982215965,103.65628051757812,306100,0.0,0.0
2022-06-01 00:00:00-04:00,104.04345984632769,104.45967270682254,102.24309792742133,103.8111572265625,313900,0.0,0.0
2022-06-02 00:00:00-04:00,104.14994005394632,106.5020254601185,103.40463238336682,106.30844116210938,145400,0.0,0.0
2022-06-03 00:00:00-04:00,105.23402573334636,106.24068027601083,104.7694131041292,105.31146240234375,139800,0.0,0.0
2022-06-06 00:00:00-04:00,106.07613458918318,107.25701804580146,104.85654017951946,105.74703979492188,207400,0.0,0.0
2022-06-07 00:00:00-04:00,105.15660160180046,106.80209039796124,104.92429895187887,106.64722442626953,132900,0.0,0.0
2022-06-08 00:00:00-04:00,105.46632895853068,105.88254182581218,103.82084034914836,104.25640869140625,157700,0.0,0.0
2022-06-09 00:00:00-04:00,103.34654630355774,104.24672727782973,102.40765437932691,102.43669128417969,193800,0.0,0.0
2022-06-10 00:00:00-04:00,100.25882203874323,102.49475204494976,99.82324636710453,101.82687377929688,266800,0.0,0.0
2022-06-13 00:00:00-04:00,99.57160730615706,99.92006495607282,97.80996358036855,98.73918151855469,252100,0.0,0.0
2022-06-14 00:00:00-04:00,98.35200835280136,99.00052390356062,95.23525227512881,96.32901763916016,227900,0.0,0.0
2022-06-15 00:00:00-04:00,97.08398580179343,97.99384063934525,95.380416338124,97.15174102783203,283300,0.0,0.0
2022-06-16 00:00:00-04:00,95.71921564085466,95.71921564085466,91.01504485201731,91.73131561279297,620400,0.0,0.0
2022-06-17 00:00:00-04:00,91.46029666727229,95.30300486521759,91.45062262154339,94.37378692626953,458500,0.0,0.0
2022-06-21 00:00:00-04:00,94.83840102467667,95.53530895086821,93.97693093185286,94.07373046875,236100,0.0,0.0
2022-06-22 00:00:00-04:00,93.28001073733672,95.67080685803715,93.15417430982778,95.30299377441406,228200,0.0,0.0
2022-06-23 00:00:00-04:00,95.45786908712122,96.13542146174841,94.054357190012,95.75792694091797,152100,0.0,0.0
2022-06-24 00:00:00-04:00,96.84203937768575,99.3586725304354,96.4742188209387,99.32963562011719,327300,0.0,0.0
2022-06-27 00:00:00-04:00,99.3296318089474,100.81057325650315,98.71982717658796,100.2491683959961,185200,0.0,0.0
2022-06-28 00:00:00-04:00,100.87831833914302,101.02351025529859,98.71014318146077,99.40705108642578,280200,0.0,0.0
2022-06-29 00:00:00-04:00,99.19411013638518,100.55889640862841,98.0906560175427,100.0749282836914,220900,0.0,0.0
2022-06-30 00:00:00-04:00,99.0489145906363,100.18139818912574,98.11969671099618,99.90069580078125,205900,0.0,0.0
2022-07-01 00:00:00-04:00,100.02653545477781,101.31389252874098,98.88437769008729,101.13966369628906,262300,0.0,0.0
2022-07-05 00:00:00-04:00,100.02653422237171,100.02653422237171,97.73252990558146,99.62000274658203,230200,0.0,0.0
2022-07-06 00:00:00-04:00,100.21043111164866,100.22979397063659,98.25520328558355,99.34896850585938,286400,0.0,0.0
2022-07-07 00:00:00-04:00,99.16505265831917,99.9878042691133,98.5842924625801,99.80389404296875,221200,0.0,0.0
2022-07-08 00:00:00-04:00,99.4360943652147,99.7264708098022,96.79362514934,96.80330657958984,208100,0.0,0.0
2022-07-11 00:00:00-04:00,96.6097208680465,96.90978614619273,95.31268975558885,96.35806274414062,186900,0.0,0.0
2022-07-12 00:00:00-04:00,96.28061505746588,98.58430055643085,96.0386310073103,97.28726959228516,284300,0.0,0.0
2022-07-13 00:00:00-04:00,96.53228363572835,98.06161726937513,96.3193364831938,97.442138671875,202500,0.0,0.0
2022-07-14 00:00:00-04:00,96.38708692883118,96.70650764174205,95.18684074421463,96.1160659790039,199800,0.0,0.0
2022-07-15 00:00:00-04:00,97.57765114992404,97.57765114992404,96.02895462448811,96.80330657958984,195300,0.0,0.0
2022-07-18 00:00:00-04:00,97.34533995033493,97.71315303501639,94.56736049451118,94.95453643798828,179900,0.0,0.0
2022-07-19 00:00:00-04:00,95.39013318071859,97.84868508675041,95.39013318071859,97.79061126708984,635400,0.0,0.0
2022-07-20 00:00:00-04:00,97.44214672795364,99.19411647379911,97.43247268186946,98.5552749633789,458900,0.0,0.0
2022-07-21 00:00:00-04:00,98.6423811796512,100.27818832760123,98.32296046294894,100.16204071044922,138900,0.0,0.0
2022-07-22 00:00:00-04:00,100.28787204269864,100.64601110153538,99.0489148663958,100.27819061279297,214600,0.0,0.0
2022-07-25 00:00:00-04:00,100.39435209935876,101.15902264639725,99.61032607602652,100.58793640136719,267400,0.0,0.0
2022-07-26 00:00:00-04:00,100.17020162451607,100.91824467106436,98.97526724828157,100.86967468261719,262200,0.38,0.0
2022-07-27 00:00:00-04:00,101.26797713599707,103.50240404727282,100.68508541492916,103.00694274902344,229200,0.0,0.0
2022-07-28 00:00:00-04:00,103.05552989931,104.74591827392578,102.15204505200532,104.74591827392578,249800,0.0,0.0
2022-07-29 00:00:00-04:00,104.11442472058117,106.36827782971129,103.3566648476993,104.68760681152344,424400,0.0,0.0
2022-08-01 00:00:00-04:00,103.2692365701868,105.55223319668197,102.59890709408234,105.11505889892578,277000,0.0,0.0
2022-08-02 00:00:00-04:00,104.7847590047528,104.9596272459163,102.81263836999591,103.55096435546875,209700,0.0,0.0
2022-08-03 00:00:00-04:00,104.26988579135482,105.71740190459558,103.40526142603437,104.571044921875,260700,0.0,0.0
2022-08-04 00:00:00-04:00,104.14357656014805,104.16301048309464,102.84178537378442,103.4052505493164,292600,0.0,0.0
2022-08-05 00:00:00-04:00,102.65721337881155,103.62870211882915,102.09374813075232,102.63778686523438,174600,0.0,0.0
2022-08-08 00:00:00-04:00,103.10408196331502,104.92076830501762,102.98750807546166,104.21157836914062,219300,0.0,0.0
2022-08-09 00:00:00-04:00,104.68761311744112,104.92076830501762,103.45381845061466,104.21157836914062,249200,0.0,0.0
2022-08-10 00:00:00-04:00,106.11570722319111,107.58264973048398,104.96935033351734,106.64030456542969,152900,0.0,0.0
2022-08-11 00:00:00-04:00,107.48550863591778,108.11697777012454,106.42658951592706,106.50430297851562,171100,0.0,0.0
2022-08-12 00:00:00-04:00,107.36891757783482,107.98096014380401,106.9997545754706,107.91295623779297,201300,0.0,0.0
2022-08-15 00:00:00-04:00,107.52437255092232,109.22447782238314,107.52437255092232,108.71930694580078,146500,0.0,0.0
2022-08-16 00:00:00-04:00,107.99068215173514,109.05931818693435,107.55350781106033,108.8747329711914,187700,0.0,0.0
2022-08-17 00:00:00-04:00,107.83525166488879,108.29185256504488,106.91234031358633,107.86439514160156,173100,0.0,0.0
2022-08-18 00:00:00-04:00,107.77696471146324,107.97125949746238,106.83461943443827,107.86439514160156,197300,0.0,0.0
2022-08-19 00:00:00-04:00,108.00039377781847,108.08783161238236,106.42658687437222,107.01919555664062,253400,0.0,0.0
2022-08-22 00:00:00-04:00,106.0574088475859,106.1934166588472,104.67789681229583,104.84304809570312,178300,0.0,0.0
2022-08-23 00:00:00-04:00,104.80418648532448,105.34822513613018,102.98750756450484,103.84241485595703,178000,0.0,0.0
2022-08-24 00:00:00-04:00,104.30874588649061,104.9887850215165,103.67727674004047,104.38645935058594,183000,0.0,0.0
2022-08-25 00:00:00-04:00,104.4738844157295,105.86311340332031,104.4738844157295,105.86311340332031,132900,0.0,0.0
2022-08-26 00:00:00-04:00,106.4265871765713,106.4265871765713,101.19997336807596,101.43313598632812,152000,0.0,0.0
2022-08-29 00:00:00-04:00,101.00569233715157,101.49143674011037,99.85933524969397,101.03483581542969,146800,0.0,0.0
2022-08-30 00:00:00-04:00,101.46226923385957,101.6857074556587,99.79130769749369,101.08338928222656,148900,0.0,0.0
2022-08-31 00:00:00-04:00,101.40399841309524,101.773168901193,99.82047433522376,99.8787612915039,180300,0.0,0.0
2022-09-01 00:00:00-04:00,99.44158657615682,99.93704790169005,98.44095437437831,99.69417572021484,212200,0.0,0.0
2022-09-02 00:00:00-04:00,100.39363302482401,101.20968734086333,97.84833751831246,98.53809356689453,206000,0.0,0.0
2022-09-06 00:00:00-04:00,98.37293658845896,98.9752547699872,96.96427368741607,97.46945190429688,159300,0.0,0.0
2022-09-07 00:00:00-04:00,97.77061689954385,100.67536588048566,97.75119038781511,100.2964859008789,164200,0.0,0.0
2022-09-08 00:00:00-04:00,99.34443208193838,102.02573543714085,99.21813381300542,101.89944458007812,137900,0.0,0.0
2022-09-09 00:00:00-04:00,102.6669238946982,103.77442039582478,101.69543521568397,103.37611389160156,197100,0.0,0.0
2022-09-12 00:00:00-04:00,104.12414861999531,105.1830676380828,103.69669126347641,104.05614471435547,154500,0.0,0.0
2022-09-13 00:00:00-04:00,102.16174886279974,102.73492360226841,101.01539197199229,101.05424499511719,271700,0.0,0.0
2022-09-14 00:00:00-04:00,100.85023113937737,101.3359754487463,99.52900602494431,100.62679290771484,250700,0.0,0.0
2022-09-15 00:00:00-04:00,100.30619982965854,102.39490184117311,100.27705635701157,102.20059967041016,423000,0.0,0.0
2022-09-16 00:00:00-04:00,101.35540293306964,101.35540293306964,98.50894116451715,99.71358489990234,579400,0.0,0.0
2022-09-19 00:00:00-04:00,98.94611567543599,101.56913942865609,98.9363987137935,101.5497055053711,194400,0.0,0.0
2022-09-20 00:00:00-04:00,100.50050314053937,100.50050314053937,97.81919966267736,98.29522705078125,157500,0.0,0.0
2022-09-21 00:00:00-04:00,98.8878363137289,99.36386370454039,96.78941715021021,96.82827758789062,173500,0.0,0.0
2022-09-22 00:00:00-04:00,96.31339451629131,96.31339451629131,94.49670787732701,95.32247924804688,199200,0.0,0.0
2022-09-23 00:00:00-04:00,94.16640160573118,95.50705336649696,94.16640160573118,95.28361511230469,274900,0.0,0.0
2022-09-26 00:00:00-04:00,94.7201437390094,95.64305499530806,93.68065117598944,94.6327133178711,364000,0.0,0.0
2022-09-27 00:00:00-04:00,95.19616312132523,95.98307390493453,92.51485999840864,93.3211898803711,238600,0.0,0.0
2022-09-28 00:00:00-04:00,93.99152515125796,95.69163025735305,93.31148607356793,95.43904113769531,237000,0.0,0.0
2022-09-29 00:00:00-04:00,94.448130161382,94.48699059780314,93.5252114730881,94.01095581054688,206400,0.0,0.0
2022-09-30 00:00:00-04:00,93.37950617556331,94.97274721548871,92.16514517489631,92.3205795288086,471500,0.0,0.0
2022-10-03 00:00:00-04:00,93.70979545491807,95.22531539596609,92.93260897237536,94.66185760498047,274200,0.0,0.0
2022-10-04 00:00:00-04:00,96.26481026562976,96.98371722927573,95.70135246119517,96.40082550048828,262900,0.0,0.0
2022-10-05 00:00:00-04:00,95.29331473391176,96.64369072833762,94.26353917331024,95.38075256347656,201300,0.0,0.0
2022-10-06 00:00:00-04:00,94.87559463869054,95.4001920398949,93.57379586286571,94.95330810546875,202100,0.0,0.0
2022-10-07 00:00:00-04:00,94.16640301353934,94.16640301353934,90.93134375973084,91.3005142211914,119000,0.0,0.0
2022-10-10 00:00:00-04:00,91.69881646610763,92.74802602569372,91.23250604753856,91.67938995361328,177300,0.0,0.0
2022-10-11 00:00:00-04:00,91.12563176369157,92.92288415421791,90.63988747371852,92.03882598876953,369800,0.0,0.0
2022-10-12 00:00:00-04:00,92.05826193443838,92.05826193443838,90.61073858195626,90.70789337158203,147400,0.0,0.0
2022-10-13 00:00:00-04:00,88.47347445229413,92.32056876441929,87.65742751269354,91.86396789550781,237000,0.0,0.0
2022-10-14 00:00:00-04:00,92.6800243448799,93.18519521246711,91.42680302052216,92.36914825439453,319300,0.0,0.0
2022-10-17 00:00:00-04:00,93.2823346480487,94.59385022321766,93.2823346480487,94.54527282714844,344900,0.0,0.0
2022-10-18 00:00:00-04:00,96.4202431247074,97.12943306080201,95.30302975726127,96.44938659667969,281300,0.0,0.0
2022-10-19 00:00:00-04:00,95.89564116246869,96.38138547435145,94.80757123557812,95.40989685058594,359500,0.0,0.0
2022-10-20 00:00:00-04:00,95.28361168402189,95.88592992310433,92.70916519503372,93.33091735839844,185600,0.0,0.0
2022-10-21 00:00:00-04:00,92.8354537384103,95.12816756304778,91.83482160708982,94.73957061767578,176400,0.0,0.0
2022-10-24 00:00:00-04:00,95.10873887329721,95.98308012739575,94.49669628949319,95.0990219116211,158500,0.0,0.0
2022-10-25 00:00:00-04:00,94.08473830554523,96.97155011982244,93.59710102392906,96.75698852539062,292500,0.38,0.0
2022-10-26 00:00:00-04:00,97.38117205813707,98.55150609951095,96.51317821718118,96.63996124267578,271900,0.0,0.0
2022-10-27 00:00:00-04:00,96.6594709024473,98.15163992250055,96.42540707047455,96.63996124267578,216700,0.0,0.0
2022-10-28 00:00:00-04:00,99.42924146767989,101.54559298281465,96.76674600397702,98.6295166015625,445300,0.0,0.0
2022-10-31 00:00:00-04:00,97.48845644048096,98.11263164247302,96.64971961766251,96.698486328125,372900,0.0,0.0
2022-11-01 00:00:00-04:00,97.13735118574695,97.13735118574695,94.48460301457354,94.81620025634766,301300,0.0,0.0
2022-11-02 00:00:00-04:00,94.78693244350394,95.33308379057232,92.2317105368908,92.4170150756836,268400,0.0,0.0
2022-11-03 00:00:00-04:00,91.9488872434991,92.67058835738494,90.26166636799188,92.36825561523438,278300,0.0,0.0
2022-11-04 00:00:00-04:00,94.05548151699875,96.33762042965624,93.85067475104906,96.32786560058594,209100,0.0,0.0
2022-11-07 00:00:00-05:00,96.73748808513194,98.03459762308559,95.55740673483317,98.00534057617188,180700,0.0,0.0
2022-11-08 00:00:00-05:00,98.50274259061094,99.24395343014979,97.65425094110901,97.86881256103516,153100,0.0,0.0
2022-11-09 00:00:00-05:00,97.75177536009339,98.38569789053872,96.11331375242877,96.66921997070312,165300,0.0,0.0
2022-11-10 00:00:00-05:00,100.28748775829739,100.69710129983766,98.5417453513467,99.79985046386719,266000,0.0,0.0
2022-11-11 00:00:00-05:00,100.29723023611837,102.48185056554627,98.95135404805907,101.67237091064453,292600,0.0,0.0
2022-11-14 00:00:00-05:00,101.04819676306815,102.66714864755373,101.04819676306815,101.81866455078125,238400,0.0,0.0
2022-11-15 00:00:00-05:00,103.21330621428406,104.36413046755662,101.7016277030284,102.10149383544922,272500,0.0,0.0
2022-11-16 00:00:00-05:00,102.26729157115243,103.27182318346567,102.11124406905297,102.3258056640625,139300,0.0,0.0
2022-11-17 00:00:00-05:00,101.14572702617149,102.47210106632555,101.14572702617149,102.02347564697266,162700,0.0,0.0
2022-11-18 00:00:00-05:00,103.48638262905804,104.28610745882128,102.02347081065547,103.4181137084961,213200,0.0,0.0
2022-11-21 00:00:00-05:00,103.4766298155874,104.0617930661947,102.33556036079001,102.54036712646484,193300,0.0,0.0
2022-11-22 00:00:00-05:00,102.63789385625377,104.0227894032295,102.63789385625377,103.37910461425781,284000,0.0,0.0
2022-11-23 00:00:00-05:00,103.36935558825755,104.13982343614973,102.96949686055054,103.56441497802734,202100,0.0,0.0
2022-11-25 00:00:00-05:00,103.91551120590492,103.91551120590492,102.94998399828181,103.29133605957031,114700,0.0,0.0
2022-11-28 00:00:00-05:00,102.44284169904996,102.88171227913404,100.68734449720469,100.94091796875,208500,0.0,0.0
2022-11-29 00:00:00-05:00,100.4532824933491,101.52608305124366,100.38501356986731,100.755615234375,181400,0.0,0.0
2022-11-30 00:00:00-05:00,100.34600536348798,103.55465976599352,98.99037423280163,103.5156478881836,297900,0.0,0.0
2022-12-01 00:00:00-05:00,104.13982879131224,105.11510346804789,103.87650790252593,104.4421615600586,156600,0.0,0.0
2022-12-02 00:00:00-05:00,103.6326756335968,105.86605524312506,103.47662813423473,105.37841796875,167400,0.0,0.0
2022-12-05 00:00:00-05:00,104.21785324597815,104.28612217617454,103.06702882212815,104.06180572509766,153800,0.0,0.0
2022-12-06 00:00:00-05:00,103.91550717161311,104.43240149703342,102.7646828950954,104.35437774658203,247800,0.0,0.0
2022-12-07 00:00:00-05:00,104.09106792612305,105.48571099010417,103.57416610514326,103.67169952392578,152800,0.0,0.0
2022-12-08 00:00:00-05:00,103.81797344078954,105.27113788560536,103.81797344078954,105.26138305664062,190800,0.0,0.0
2022-12-09 00:00:00-05:00,105.16385934923228,106.28542660013909,104.9883096278664,105.38816833496094,316700,0.0,0.0
2022-12-12 00:00:00-05:00,105.77827835254486,106.09036591549497,104.83226083464011,105.40767669677734,209100,0.0,0.0
2022-12-13 00:00:00-05:00,107.65081382166188,108.36276759428272,104.92004925004925,105.53446960449219,328400,0.0,0.0
2022-12-14 00:00:00-05:00,105.75878008773033,107.55328178157113,104.57869871369823,105.563720703125,302500,0.0,0.0
2022-12-15 00:00:00-05:00,105.03707103293462,105.86606039229649,104.5884456115796,104.98831176757812,230000,0.0,0.0
2022-12-16 00:00:00-05:00,104.46165828214501,105.5832255096285,103.7594594113465,104.78350067138672,540600,0.0,0.0
2022-12-19 00:00:00-05:00,104.66647151241814,105.68075800615152,103.16454771058724,103.63268280029297,269800,0.0,0.0
2022-12-20 00:00:00-05:00,103.79847841721525,105.4564422999126,103.6424309059824,104.47142028808594,193300,0.0,0.0
2022-12-21 00:00:00-05:00,105.31016168592593,107.90438842773438,104.91029550138958,107.90438842773438,388500,0.0,0.0
2022-12-22 00:00:00-05:00,106.79256152991572,108.06042140109311,104.80300058660487,105.87580108642578,213800,0.0,0.0
2022-12-23 00:00:00-05:00,106.44147874160574,107.47526752876155,105.67101084600183,107.28997039794922,161500,0.0,0.0
2022-12-27 00:00:00-05:00,107.18268268041743,108.27498549736377,106.91935436507866,108.12870025634766,101700,0.0,0.0
2022-12-28 00:00:00-05:00,108.3139866455452,109.14297594654217,106.31467832857771,106.47071838378906,162700,0.0,0.0
2022-12-29 00:00:00-05:00,107.20218285300226,108.42127610990254,106.67553367313076,108.05067443847656,128700,0.0,0.0
2022-12-30 00:00:00-05:00,107.76785889075211,108.00192274520275,106.32444900000225,107.2607192993164,172300,0.0,0.0
2023-01-03 00:00:00-05:00,107.8458705434527,108.32375302950469,106.74380544770912,107.53378295898438,239200,0.0,0.0
2023-01-04 00:00:00-05:00,108.50905441084987,109.43556230737798,107.58253907356702,108.47979736328125,217200,0.0,0.0
2023-01-05 00:00:00-05:00,107.90438386088975,110.23528961821611,106.42196970556171,109.34779357910156,310000,0.0,0.0
2023-01-06 00:00:00-05:00,110.5766353388575,111.57141963249171,109.95246016827544,111.23982238769531,181500,0.0,0.0
2023-01-09 00:00:00-05:00,111.79572267053489,112.81976395806996,110.47910347281449,110.52787017822266,161800,0.0,0.0
2023-01-10 00:00:00-05:00,110.3913252977367,111.51288504311205,110.16700888420918,110.6253890991211,163000,0.0,0.0
2023-01-11 00:00:00-05:00,110.77169108746156,111.60067301105941,110.64490062711108,110.65465545654297,141300,0.0,0.0
2023-01-12 00:00:00-05:00,110.87896145938892,110.97648742227018,109.62085644818488,110.69365692138672,179100,0.0,0.0
2023-01-13 00:00:00-05:00,110.41082785334501,111.48362834046898,110.41082785334501,111.15203857421875,177700,0.0,0.0
2023-01-17 00:00:00-05:00,111.35685802246256,111.69820265625667,110.0402387545396,111.23982238769531,204500,0.0,0.0
2023-01-18 00:00:00-05:00,111.6591808961368,111.766461691657,109.15272560587775,109.20149230957031,118900,0.0,0.0
2023-01-19 00:00:00-05:00,108.8308893421614,109.6306216594884,107.60204870012052,109.22100067138672,177400,0.0,0.0
2023-01-20 00:00:00-05:00,109.67938137465651,110.48886108398438,108.92842320144285,110.48886108398438,180800,0.0,0.0
2023-01-23 00:00:00-05:00,110.40108139917471,110.91798318579559,109.67938028083822,110.55712890625,165500,0.0,0.0
2023-01-24 00:00:00-05:00,110.2352847150311,110.35232034343879,108.9966892709232,110.04998016357422,172600,0.0,0.0
2023-01-25 00:00:00-05:00,109.07471005247224,109.7281497035842,107.75809080213567,109.29902648925781,181200,0.0,0.0
2023-01-26 00:00:00-05:00,109.72815262186917,110.09875430907252,109.05521073437004,110.00122833251953,139000,0.0,0.0
2023-01-27 00:00:00-05:00,109.72814927014919,110.14751765319666,109.09421928078608,109.94271087646484,204300,0.0,0.0
2023-01-30 00:00:00-05:00,108.9479281647212,110.52787574602776,108.7041095069072,110.4498519897461,200200,0.0,0.0
2023-01-31 00:00:00-05:00,111.01551695530569,113.44394878889428,110.51812479250867,112.78076171875,630900,0.0,0.0
2023-02-01 00:00:00-05:00,111.98817529307878,115.52052472025264,111.9294682831346,114.5713882446289,190900,0.38,0.0
2023-02-02 00:00:00-05:00,114.57138889039847,115.7945013730372,114.0723643724879,114.7768783569336,271600,0.0,0.0
2023-02-03 00:00:00-05:00,114.08215613885235,114.08215613885235,112.7318425006277,112.93732452392578,284100,0.0,0.0
2023-02-06 00:00:00-05:00,112.09581247400796,113.0155954666978,110.99990844726562,110.99990844726562,180400,0.0,0.0
2023-02-07 00:00:00-05:00,110.24646544851845,110.40302743035079,108.32862596278922,109.77679443359375,189100,0.0,0.0
2023-02-08 00:00:00-05:00,109.3168985454117,109.74743651284261,108.17206709414592,108.18184661865234,138800,0.0,0.0
2023-02-09 00:00:00-05:00,109.08206801886405,109.4049640438675,106.89024505321868,106.90003204345703,180200,0.0,0.0
2023-02-10 00:00:00-05:00,106.65539601350335,106.87066497971936,105.56927165871183,106.86087799072266,217900,0.0,0.0
2023-02-13 00:00:00-05:00,107.04680442246669,108.1622823932468,106.90002943361962,107.43820190429688,184900,0.0,0.0
2023-02-14 00:00:00-05:00,107.438211237858,108.80809134534121,107.30122322710967,107.3990707397461,122500,0.0,0.0
2023-02-15 00:00:00-05:00,106.4792815568927,108.02529754936728,106.23465905676518,108.01551055908203,155200,0.0,0.0
2023-02-16 00:00:00-05:00,106.38143267257288,109.1309871495159,105.85304718330413,108.3090591430664,372200,0.0,0.0
2023-02-17 00:00:00-05:00,112.52634981894491,118.67126581461193,111.56742633576187,114.18000030517578,590700,0.0,0.0
2023-02-21 00:00:00-05:00,113.99407578319632,113.99407578319632,110.67699554861629,112.60462188720703,463900,0.0,0.0
2023-02-22 00:00:00-05:00,112.14473062359853,113.5048310187556,111.96860213892352,112.25236511230469,257700,0.0,0.0
2023-02-23 00:00:00-05:00,112.34044007804002,113.07430761440618,110.64765647471593,112.09581756591797,196400,0.0,0.0
2023-02-24 00:00:00-05:00,111.3521634037615,112.56548889623957,110.5595814386297,112.3012924194336,215100,0.0,0.0
2023-02-27 00:00:00-05:00,113.34827783428503,114.72795231540253,113.02538180842211,114.18000030517578,215300,0.0,0.0
2023-02-28 00:00:00-05:00,114.14084133695509,115.56943560761974,114.08212687015721,114.20933532714844,261500,0.0,0.0
2023-03-01 00:00:00-05:00,113.68095999149226,115.08020088539392,113.68095999149226,114.93342590332031,194700,0.0,0.0
2023-03-02 00:00:00-05:00,114.89429825546645,116.44031430428454,114.7083902249889,116.02935028076172,205000,0.0,0.0
2023-03-03 00:00:00-05:00,116.41094808637314,117.66341400146484,115.31503667802504,117.66341400146484,225400,0.0,0.0
2023-03-06 00:00:00-05:00,117.54599853680486,117.6047130119629,114.07236358913649,114.31698608398438,265900,0.0,0.0
2023-03-07 00:00:00-05:00,114.19956377353569,114.81600976859379,113.72010577737939,114.1604232788086,247100,0.0,0.0
2023-03-08 00:00:00-05:00,113.90602946069806,114.18978500364545,112.69269643267285,112.84925842285156,281700,0.0,0.0
2023-03-09 00:00:00-05:00,113.46569894579096,113.90602392279584,112.0664579540653,112.10559844970703,189700,0.0,0.0
2023-03-10 00:00:00-05:00,112.17410085583242,112.17410085583242,109.86486369694504,110.13883972167969,201400,0.0,0.0
2023-03-13 00:00:00-04:00,109.05270447113658,110.67700140915343,109.05270447113658,109.5615234375,245400,0.0,0.0
2023-03-14 00:00:00-04:00,111.42064997876949,112.78075037157791,111.04881903105006,112.60462188720703,261500,0.0,0.0
2023-03-15 00:00:00-04:00,111.0194680262325,111.30323100550942,107.80023521823885,108.98420715332031,256200,0.0,0.0
2023-03-16 00:00:00-04:00,107.84917154248042,110.84334862432897,107.58497505567823,110.25625610351562,209200,0.0,0.0
2023-03-17 00:00:00-04:00,110.49109039168059,110.49109039168059,107.58497386085018,108.37755584716797,393800,0.0,0.0
2023-03-20 00:00:00-04:00,109.3951794877413,111.02925591394136,109.3951794877413,110.35409545898438,146400,0.0,0.0
2023-03-21 00:00:00-04:00,111.67505263843506,111.76312061378005,110.05076324218282,110.58892822265625,141200,0.0,0.0
2023-03-22 00:00:00-04:00,110.3736751112363,111.76312912114271,109.7278681271668,109.83550262451172,176700,0.0,0.0
2023-03-23 00:00:00-04:00,109.73764549343846,111.00967790415113,108.42646512499408,109.31689453125,156900,0.0,0.0
2023-03-24 00:00:00-04:00,108.63195620067049,110.55958268953378,107.65346620350424,110.5400161743164,148800,0.0,0.0
2023-03-27 00:00:00-04:00,111.01947842578275,112.36979198597774,111.01947842578275,111.5282974243164,170100,0.0,0.0
2023-03-28 00:00:00-04:00,111.32279368044414,112.64376103003902,110.70634772517593,112.54590606689453,189800,0.0,0.0
2023-03-29 00:00:00-04:00,113.20150365313748,113.44612613836577,112.68290517889922,113.37763214111328,138700,0.0,0.0
2023-03-30 00:00:00-04:00,113.77882086385497,114.25827889404745,112.57528229302476,113.45591735839844,148000,0.0,0.0
2023-03-31 00:00:00-04:00,114.01365914216875,115.72601675671618,114.01365914216875,115.64774322509766,206300,0.0,0.0
2023-04-03 00:00:00-04:00,115.39331778179478,116.2543862329776,115.11934179574959,116.09783172607422,151100,0.0,0.0
2023-04-04 00:00:00-04:00,115.95106450381833,115.95106450381833,114.2680605165745,115.138916015625,183100,0.0,0.0
2023-04-05 00:00:00-04:00,115.20741233178677,116.63600685854641,114.70838779890055,116.51859283447266,249700,0.0,0.0
2023-04-06 00:00:00-04:00,116.77299181083052,116.77299181083052,115.3933248070262,116.49901580810547,159300,0.0,0.0
2023-04-10 00:00:00-04:00,115.83364820843825,116.65558372370869,115.43247117412322,116.53816223144531,174600,0.0,0.0
2023-04-11 00:00:00-04:00,116.63601008786671,117.409018117329,116.27397354990035,116.48924255371094,121800,0.0,0.0
2023-04-12 00:00:00-04:00,116.76320485690785,117.09588784896819,115.64772693662151,115.84342193603516,134300,0.0,0.0
2023-04-13 00:00:00-04:00,115.8042883789692,117.41879834932972,115.3541838811311,117.20352935791016,110700,0.0,0.0
2023-04-14 00:00:00-04:00,116.61644270032957,117.47751124385101,115.76515368215436,116.6360092163086,233600,0.0,0.0
2023-04-17 00:00:00-04:00,116.92956535947879,117.23289489746094,115.9804287809434,117.23289489746094,122400,0.0,0.0
2023-04-18 00:00:00-04:00,117.15460898417136,117.15460898417136,115.51074551363084,116.03912353515625,261700,0.0,0.0
2023-04-19 00:00:00-04:00,115.8238721357144,116.86106921978963,115.52053513797998,116.15655517578125,252900,0.0,0.0
2023-04-20 00:00:00-04:00,116.44030439380829,117.22309934223397,115.97062593169571,116.46965789794922,296800,0.0,0.0
2023-04-21 00:00:00-04:00,116.75342240769223,118.46577984765226,116.24461091025852,117.99610137939453,361500,0.0,0.0
2023-04-24 00:00:00-04:00,118.26029276247478,118.80824473079451,117.1643813605496,117.81018829345703,229600,0.0,0.0
2023-04-25 00:00:00-04:00,116.86105855385608,117.3698700584857,115.34439609947044,115.53031158447266,167500,0.0,0.0
2023-04-26 00:00:00-04:00,114.49309980571944,115.05083872339554,113.12321251827207,113.26020050048828,247200,0.0,0.0
2023-04-27 00:00:00-04:00,113.26020723587565,114.072355653944,112.16429584768879,114.06256866455078,361900,0.0,0.0
2023-04-28 00:00:00-04:00,114.00386604924881,116.99804290432304,114.00386604924881,115.96084594726562,586700,0.0,0.0
2023-05-01 00:00:00-04:00,116.84149293285557,119.86502340939604,116.84149293285557,119.02352142333984,283100,0.0,0.0
2023-05-02 00:00:00-04:00,118.14288317086096,118.27987117672369,113.24065353544547,117.88848114013672,359200,0.0,0.0
2023-05-03 00:00:00-04:00,118.25166527414284,118.78172260678689,117.53510420716846,117.6921615600586,294300,0.38,0.0
2023-05-04 00:00:00-04:00,117.73141886029768,117.93755100696332,116.20995767298123,116.61241149902344,192500,0.0,0.0
2023-05-05 00:00:00-04:00,116.79890277464725,119.63568539327368,116.79890277464725,119.45899963378906,171100,0.0,0.0
2023-05-08 00:00:00-04:00,119.6160668606866,120.08722393233099,118.438166692669,119.2626953125,200400,0.0,0.0
2023-05-09 00:00:00-04:00,118.64428757283552,118.80133741882362,117.4860159391628,118.35962677001953,185600,0.0,0.0
2023-05-10 00:00:00-04:00,118.8602376605255,119.33140220597461,116.31793367529332,117.41731262207031,227200,0.0,0.0
2023-05-11 00:00:00-04:00,117.27989407350391,117.62344766253574,116.76946517930813,117.08357238769531,203900,0.0,0.0
2023-05-12 00:00:00-04:00,117.47620439946992,118.64429405259523,117.15227924523927,118.56576538085938,168400,0.0,0.0
2023-05-15 00:00:00-04:00,118.36943723677098,118.84060175254713,117.82956949811108,118.35962677001953,148300,0.0,0.0
2023-05-16 00:00:00-04:00,118.35963697918922,118.35963697918922,116.03327555552497,116.14125061035156,180800,0.0,0.0
2023-05-17 00:00:00-04:00,116.63203460622199,116.84798469923967,115.29707720293632,116.7792739868164,168600,0.0,0.0
2023-05-18 00:00:00-04:00,115.9940194322432,116.85781993202393,115.61120147944297,116.79891967773438,94000,0.0,0.0
2023-05-19 00:00:00-04:00,117.67252566837792,118.05534360498534,116.41609680065028,116.8970718383789,156900,0.0,0.0
2023-05-22 00:00:00-04:00,116.48479972892893,117.31914626601181,115.71916390692569,115.95474243164062,229600,0.0,0.0
2023-05-23 00:00:00-04:00,115.23819743180502,116.26885823429332,114.7572223906438,115.02224731445312,155400,0.0,0.0
2023-05-24 00:00:00-04:00,115.03205806094066,115.03205806094066,112.91182884773758,113.00017547607422,297800,0.0,0.0
2023-05-25 00:00:00-04:00,112.1854616347367,113.15722965008982,111.35111505634639,111.44927215576172,196800,0.0,0.0
2023-05-26 00:00:00-04:00,110.90939246562569,112.38177136503076,110.87012812963945,112.05785369873047,210200,0.0,0.0
2023-05-30 00:00:00-04:00,112.10693724750945,112.60754820925368,110.92903703165979,111.27259063720703,136100,0.0,0.0
2023-05-31 00:00:00-04:00,111.35111314041339,111.46889866212248,109.6333377190282,110.4186019897461,360800,0.0,0.0
2023-06-01 00:00:00-04:00,110.74252041208102,111.42962754325274,109.9768846119451,110.86031341552734,170700,0.0,0.0
2023-06-02 00:00:00-04:00,111.9106143110087,112.63698580448809,111.56706073226212,112.05785369873047,353000,0.0,0.0
2023-06-05 00:00:00-04:00,111.70448262306778,112.12656487552233,110.80141786948396,110.97810363769531,237400,0.0,0.0
2023-06-06 00:00:00-04:00,110.95847597543488,112.54864790024835,110.95847597543488,112.21490478515625,266900,0.0,0.0
2023-06-07 00:00:00-04:00,112.25416759300819,113.56948914499125,111.9596888183431,113.28483581542969,264100,0.0,0.0
2023-06-08 00:00:00-04:00,113.43207639506426,113.85415867697041,112.6762584659754,113.07870483398438,270500,0.0,0.0
2023-06-09 00:00:00-04:00,112.9412812011952,113.441892151164,112.28362038763048,112.69588470458984,295000,0.0,0.0
2023-06-12 00:00:00-04:00,112.56828023770653,113.46151958330516,112.19528026213554,113.26520538330078,353000,0.0,0.0
2023-06-13 00:00:00-04:00,113.57931687213875,114.24679566174903,112.6468131536555,113.0885238647461,340600,0.0,0.0
2023-06-14 00:00:00-04:00,113.48114700172985,113.8247005704733,112.24434666534736,113.03943634033203,225200,0.0,0.0
2023-06-15 00:00:00-04:00,112.8823871503775,114.25660901346778,112.8333048560538,113.91305541992188,362600,0.0,0.0
2023-06-16 00:00:00-04:00,113.52041136526161,115.05168297999425,113.23575055425765,114.99279022216797,975300,0.0,0.0
2023-06-20 00:00:00-04:00,114.72776130191517,114.79647201775808,113.57930755615234,113.57930755615234,297000,0.0,0.0
2023-06-21 00:00:00-04:00,113.01980117361711,113.13759417892268,111.33147220876805,111.52779388427734,317800,0.0,0.0
2023-06-22 00:00:00-04:00,111.85170267411128,111.95967771485307,110.2811668391019,111.94986724853516,266200,0.0,0.0
2023-06-23 00:00:00-04:00,110.82106057375844,111.63577874871399,110.0063423988029,110.75234985351562,366000,0.0,0.0
2023-06-26 00:00:00-04:00,110.97809961220085,112.2639822354489,110.97809961220085,111.51797485351562,142300,0.0,0.0
2023-06-27 00:00:00-04:00,111.73392545883496,112.7056934087205,111.14497541311361,112.60753631591797,218300,0.0,0.0
2023-06-28 00:00:00-04:00,112.69587315623932,112.69587315623932,110.40878373381287,111.42962646484375,204800,0.0,0.0
2023-06-29 00:00:00-04:00,111.34129569405539,113.23575689558982,110.47750274563647,112.66643524169922,225900,0.0,0.0
2023-06-30 00:00:00-04:00,113.09833284074686,114.13881153734555,112.72532539184819,113.72654724121094,279800,0.0,0.0
2023-07-03 00:00:00-04:00,113.28483828054459,114.86518477299002,113.28483828054459,114.39402770996094,85700,0.0,0.0
2023-07-05 00:00:00-04:00,113.49096391458002,113.49096391458002,110.68362765481089,110.86031341552734,384200,0.0,0.0
2023-07-06 00:00:00-04:00,110.18302145320327,110.89958248249435,109.57443547611915,110.39897155761719,277700,0.0,0.0
2023-07-07 00:00:00-04:00,110.57566419205385,113.20631496671577,110.51676393970676,111.69467163085938,333400,0.0,0.0
2023-07-10 00:00:00-04:00,111.22350117784158,113.17686260297434,110.929029887298,112.36214447021484,248000,0.0,0.0
2023-07-11 00:00:00-04:00,112.20508796771925,113.4320704098084,111.28240226372463,113.38299560546875,226700,0.0,0.0
2023-07-12 00:00:00-04:00,114.43328809873285,115.38542763725938,113.63819841282893,114.71794891357422,199400,0.0,0.0
2023-07-13 00:00:00-04:00,114.69831222740211,115.20874109502009,114.41365141448175,114.8553695678711,190200,0.0,0.0
2023-07-14 00:00:00-04:00,115.52285721600032,116.65167511001793,114.55108169677736,116.17070007324219,271600,0.0,0.0
2023-07-17 00:00:00-04:00,116.21977744333584,117.33878482207749,115.00261296782688,117.0639419555664,234200,0.0,0.0
2023-07-18 00:00:00-04:00,116.81854971788495,118.15350725141096,116.5142529712606,116.88726043701172,189100,0.0,0.0
2023-07-19 00:00:00-04:00,116.56333073191328,117.21118104897205,116.13143052054077,116.91670227050781,247200,0.0,0.0
2023-07-20 00:00:00-04:00,117.57436296115227,118.00626317218011,116.67130569164537,117.13265228271484,175800,0.0,0.0
2023-07-21 00:00:00-04:00,117.44675876945266,117.83939464173179,116.68112293740685,117.63325500488281,184300,0.0,0.0
2023-07-24 00:00:00-04:00,117.80993713596214,118.27128370997957,116.52406199562894,117.52528381347656,163400,0.0,0.0
2023-07-25 00:00:00-04:00,117.47620342269731,118.88968954656478,117.10320346841284,118.33999633789062,250700,0.0,0.0
2023-07-26 00:00:00-04:00,118.3498637158358,118.5862461526164,117.03004612201454,118.14302062988281,306900,0.41,0.0
2023-07-27 00:00:00-04:00,118.25136138839413,118.96051619666319,116.95124674472149,117.34522247314453,407800,0.0,0.0
2023-07-28 00:00:00-04:00,120.64475358705498,125.07696356835932,120.04394229954343,121.91532135009766,513000,0.0,0.0
2023-07-31 00:00:00-04:00,121.6592367554332,122.06306394094794,119.00976521560548,119.6302719116211,746500,0.0,0.0
2023-08-01 00:00:00-04:00,119.41358520927224,120.65460611911824,118.93096888884513,120.59551239013672,365300,0.0,0.0
2023-08-02 00:00:00-04:00,119.61056990014845,120.48716189674361,118.17256496736918,120.39851379394531,329200,0.0,0.0
2023-08-03 00:00:00-04:00,119.68936222304521,120.88114082631289,118.90141830822384,118.99005889892578,195900,0.0,0.0
2023-08-04 00:00:00-04:00,118.80292117376706,120.29016834905809,118.66503080671306,118.82261657714844,116500,0.0,0.0
2023-08-07 00:00:00-04:00,118.91127569990044,119.82726608849342,118.69458867031426,119.46283721923828,140300,0.0,0.0
2023-08-08 00:00:00-04:00,118.27105347378337,119.57116799836159,117.90662464334399,119.2953872680664,270100,0.0,0.0
2023-08-09 00:00:00-04:00,119.29540183030906,121.53120232194752,118.70443446243924,119.99470520019531,287500,0.0,0.0
2023-08-10 00:00:00-04:00,119.96514169841102,121.70847415137443,119.96514169841102,120.38866424560547,216000,0.0,0.0
2023-08-11 00:00:00-04:00,119.67951949211201,121.36375836268823,119.67951949211201,120.76294708251953,226500,0.0,0.0
2023-08-14 00:00:00-04:00,120.19166991550514,121.13720703125,119.74845197559571,121.13720703125,145700,0.0,0.0
2023-08-15 00:00:00-04:00,120.7826366360751,121.07812028935527,120.14243457807048,120.25077056884766,249000,0.0,0.0
2023-08-16 00:00:00-04:00,119.89620081716167,121.3046588721182,119.65981088853212,119.70906066894531,291100,0.0,0.0
2023-08-17 00:00:00-04:00,120.12275051736071,120.81220997842735,119.78787600457096,119.80757141113281,186600,0.0,0.0
2023-08-18 00:00:00-04:00,119.5514706614991,121.56074002317912,119.5514706614991,121.43270111083984,443100,0.0,0.0
2023-08-21 00:00:00-04:00,121.29481465792134,122.58507782562879,121.20616655077505,121.91532135009766,358800,0.0,0.0
2023-08-22 00:00:00-04:00,122.00396283639077,123.81624054567901,120.9106838325083,121.09781646728516,429600,0.0,0.0
2023-08-23 00:00:00-04:00,121.20615845113085,121.698626193922,120.46745683694412,121.53118896484375,305000,0.0,0.0
2023-08-24 00:00:00-04:00,121.62969008028209,123.5700143338806,120.74324657426476,123.22528839111328,278400,0.0,0.0
2023-08-25 00:00:00-04:00,123.67835108442223,125.75656560150136,123.0972427433097,125.6186752319336,493000,0.0,0.0
2023-08-28 00:00:00-04:00,125.70731870235188,127.62794749015404,125.70731870235188,127.46051025390625,331900,0.0,0.0
2023-08-29 00:00:00-04:00,127.84462418454724,129.97208835964057,127.4506409879065,129.83419799804688,472400,0.0,0.0
2023-08-30 00:00:00-04:00,130.3759061188692,131.25249810459778,129.71600114344866,130.88807678222656,298900,0.0,0.0
2023-08-31 00:00:00-04:00,131.2722040887197,131.71542206418476,130.24787776700208,130.56304931640625,305800,0.0,0.0
2023-09-01 00:00:00-04:00,131.09492494428994,131.7745178351225,130.52366053389966,130.55320739746094,252000,0.0,0.0
2023-09-05 00:00:00-04:00,129.69629407214597,129.99177771573278,125.44138070283232,125.6482162475586,325300,0.0,0.0
2023-09-06 00:00:00-04:00,125.86492285691247,126.08160237957227,124.29887132509647,124.5057144165039,291100,0.0,0.0
2023-09-07 00:00:00-04:00,124.3875175058321,125.25425812639656,123.25484006585269,123.47152709960938,328600,0.0,0.0
2023-09-08 00:00:00-04:00,123.61925570619994,124.76177696941134,123.23513146547303,123.4222640991211,238800,0.0,0.0
2023-09-11 00:00:00-04:00,125.07696150990851,126.00280331761621,124.50570461048845,125.09666442871094,333500,0.0,0.0
2023-09-12 00:00:00-04:00,124.21022261093232,125.37244685863264,123.53061467790278,124.62389373779297,258000,0.0,0.0
2023-09-13 00:00:00-04:00,123.88518867479367,124.68298404247041,123.2252836789509,123.48136901855469,279300,0.0,0.0
2023-09-14 00:00:00-04:00,124.11172409736754,125.38229179040027,124.11172409736754,124.85042572021484,217900,0.0,0.0
2023-09-15 00:00:00-04:00,124.58448994506509,125.2837932520013,123.28437537881747,124.03292846679688,589200,0.0,0.0
2023-09-18 00:00:00-04:00,124.45645397713974,124.45645397713974,123.03814441153213,123.74729919433594,175100,0.0,0.0
2023-09-19 00:00:00-04:00,123.79654439534015,123.79654439534015,122.19109473410884,123.4222640991211,218600,0.0,0.0
2023-09-20 00:00:00-04:00,123.94428113776449,124.20036647475735,122.68356488558673,122.75251007080078,206200,0.0,0.0
2023-09-21 00:00:00-04:00,122.45703690729975,122.47673231164256,120.34927546291505,120.37882232666016,335700,0.0,0.0
2023-09-22 00:00:00-04:00,120.4871679803028,121.0485809448334,120.27048095636783,120.83189392089844,341200,0.0,0.0
2023-09-25 00:00:00-04:00,120.15228116938907,122.26004256679889,119.64011800881072,122.17140197753906,258800,0.0,0.0
2023-09-26 00:00:00-04:00,121.66907666868264,122.34868454348742,121.37360053815192,121.73802185058594,547000,0.0,0.0
2023-09-27 00:00:00-04:00,122.17139611432721,122.57521574790026,121.01902342248404,121.65922546386719,362400,0.0,0.0
2023-09-28 00:00:00-04:00,121.99411013583865,123.74729410203551,121.40315034597452,123.5798568725586,219300,0.0,0.0
2023-09-29 00:00:00-04:00,124.58449508840795,124.91937708151146,122.91010766627605,123.15634155273438,330900,0.0,0.0
2023-10-02 00:00:00-04:00,122.65402041708958,123.58971367978923,122.12215432885712,123.16619110107422,244100,0.0,0.0
2023-10-03 00:00:00-04:00,122.15169752451257,123.42226522250525,120.6447474103352,121.01902770996094,236300,0.0,0.0
2023-10-04 00:00:00-04:00,121.68879452704238,122.7820736275,120.48717191108265,122.35855102539062,208200,0.0,0.0
2023-10-05 00:00:00-04:00,122.09260826611496,123.04799693932927,120.95008695070266,121.88577270507812,466700,0.0,0.0
2023-10-06 00:00:00-04:00,121.74789169497832,124.78149518576399,121.53120465785615,124.5057144165039,491700,0.0,0.0
2023-10-09 00:00:00-04:00,123.9245946623624,125.30350598045207,123.79655574187188,125.02772521972656,275700,0.0,0.0
2023-10-10 00:00:00-04:00,125.32318748206251,126.67255178529572,124.60418879486171,124.63373565673828,322000,0.0,0.0
2023-10-11 00:00:00-04:00,125.60882568359375,125.77626291855002,124.74208513105981,125.60882568359375,212900,0.0,0.0
2023-10-12 00:00:00-04:00,125.30350378305916,125.48079248533969,123.17603935569285,123.5306167602539,189300,0.0,0.0
2023-10-13 00:00:00-04:00,124.10187352296693,124.761778507277,123.51091372336892,124.07232666015625,324900,0.0,0.0
2023-10-16 00:00:00-04:00,125.44138756500169,125.51033275034871,124.26931189964081,124.80117797851562,275200,0.0,0.0
2023-10-17 00:00:00-04:00,124.11173667090924,126.40663090072249,124.11173667090924,125.5595932006836,314400,0.0,0.0
2023-10-18 00:00:00-04:00,124.95877292177799,125.74671683410875,124.37765705376466,124.87012481689453,287300,0.0,0.0
2023-10-19 00:00:00-04:00,124.18067105542181,125.54973081483128,123.50106314806689,123.83594512939453,443900,0.0,0.0
2023-10-20 00:00:00-04:00,124.03293226088714,124.57464981108677,120.09319011968779,120.37882232666016,446500,0.0,0.0
2023-10-23 00:00:00-04:00,119.88635712970668,121.30466673557872,119.38403789188335,119.66967010498047,379000,0.0,0.0
2023-10-24 00:00:00-04:00,120.2901701673284,121.90546378962974,119.88635051898383,121.48194122314453,312100,0.0,0.0
2023-10-25 00:00:00-04:00,120.98783390708984,122.32193004982163,120.45419394209233,120.92854309082031,431300,0.41,0.0
2023-10-26 00:00:00-04:00,119.8316297385119,123.91297802297464,119.8316297385119,121.97606658935547,576000,0.0,0.0
2023-10-27 00:00:00-04:00,122.01559371378868,122.38123049558588,118.94222716992682,119.74268341064453,364000,0.0,0.0
2023-10-30 00:00:00-04:00,120.48384087248407,120.87913057816436,119.42644524501559,120.73089599609375,283100,0.0,0.0
2023-10-31 00:00:00-04:00,121.0668978964798,121.44241897947953,120.39490764196373,120.82971954345703,422900,0.0,0.0
2023-11-01 00:00:00-04:00,120.67160832753754,121.97605911265033,120.17749806742626,121.48194885253906,360500,0.0,0.0
2023-11-02 00:00:00-04:00,122.26264837035367,122.82593378558079,121.53136727012583,122.12429809570312,384300,0.0,0.0
2023-11-03 00:00:00-04:00,122.96427493970207,124.48613538750294,122.96427493970207,123.8734359741211,278000,0.0,0.0
2023-11-06 00:00:00-05:00,123.7943839445495,124.24897202852465,123.28051258024303,123.71533203125,173500,0.0,0.0
2023-11-07 00:00:00-05:00,123.15204561917379,123.51768239133312,122.70734185531134,123.08287048339844,205000,0.0,0.0
2023-11-08 00:00:00-05:00,123.40897795368349,124.01179308445136,122.94452063446629,123.64615631103516,175800,0.0,0.0
2023-11-09 00:00:00-05:00,124.20944098820135,124.20944098820135,122.60852101331227,122.92475128173828,118600,0.0,0.0
2023-11-10 00:00:00-05:00,122.77651268056438,124.3082574697725,122.43063701383082,124.23908233642578,195600,0.0,0.0
2023-11-13 00:00:00-05:00,123.91297299029823,124.00191675951038,122.90499135621492,123.06310272216797,183100,0.0,0.0
2023-11-14 00:00:00-05:00,124.46636609651023,126.35387082706988,123.8339055942185,126.34398651123047,267400,0.0,0.0
2023-11-15 00:00:00-05:00,126.3143475614149,127.28280699604653,125.8498827070265,126.20564270019531,388600,0.0,0.0
2023-11-16 00:00:00-05:00,126.14635167264116,127.1049192498191,125.34588791957243,126.04753112792969,217000,0.0,0.0
2023-11-17 00:00:00-05:00,127.04562613275004,127.55950501919288,126.10681966568688,126.42304992675781,162700,0.0,0.0
2023-11-20 00:00:00-05:00,125.94870215932512,126.14635078688451,124.940720547107,125.82023620605469,213900,0.0,0.0
2023-11-21 00:00:00-05:00,125.95858603909745,126.78869519292185,125.70164659392273,126.40328979492188,160600,0.0,0.0
2023-11-22 00:00:00-05:00,126.93690714366917,127.67807244238158,125.85975052851165,127.05550384521484,174800,0.0,0.0
2023-11-24 00:00:00-05:00,127.45080302762,127.45080302762,126.59105599136227,127.01598358154297,65900,0.0,0.0
2023-11-27 00:00:00-05:00,126.31433827436793,126.7886874102254,125.35576322655868,125.50399780273438,367500,0.0,0.0
2023-11-28 00:00:00-05:00,125.504004627321,125.51388894347652,124.01178954785065,124.13037872314453,218000,0.0,0.0
2023-11-29 00:00:00-05:00,124.16001994636261,124.9110696188559,123.44849999763464,123.89320373535156,331800,0.0,0.0
2023-11-30 00:00:00-05:00,123.97226185014588,125.63247263378987,123.33980131728381,125.39530181884766,301000,0.0,0.0
2023-12-01 00:00:00-05:00,124.93083848043351,127.02586119361783,124.93083848043351,126.59105682373047,218300,0.0,0.0
2023-12-04 00:00:00-05:00,125.94869726613702,127.36186039483064,125.39529620951916,126.90727233886719,192000,0.0,0.0
2023-12-05 00:00:00-05:00,126.73928570844643,127.17410516368075,124.39720028755862,124.50590515136719,178000,0.0,0.0
2023-12-06 00:00:00-05:00,124.90119267287656,125.80047697767145,124.39719808953521,124.88143157958984,179500,0.0,0.0
2023-12-07 00:00:00-05:00,124.75296012128835,125.6127147140196,124.50590498378766,125.00001525878906,254000,0.0,0.0
2023-12-08 00:00:00-05:00,124.87154541234229,125.99811620109602,124.14026433918309,125.82023620605469,265800,0.0,0.0
2023-12-11 00:00:00-05:00,125.76094531163876,126.17599611997662,124.8517767044628,126.06729125976562,338000,0.0,0.0
2023-12-12 00:00:00-05:00,126.1463510868967,126.5910548453198,125.1877759746455,125.97835540771484,210300,0.0,0.0
2023-12-13 00:00:00-05:00,125.68187706386493,127.47056120426309,125.68187706386493,127.07526397705078,425000,0.0,0.0
2023-12-14 00:00:00-05:00,127.55951044773897,128.47854832161434,125.38542071327007,125.89929962158203,412900,0.0,0.0
2023-12-15 00:00:00-05:00,125.66213330765346,127.06540472998513,124.48614839791895,124.49603271484375,713000,0.0,0.0
2023-12-18 00:00:00-05:00,125.21742212064312,125.71153238433733,124.39719727342491,125.55342102050781,240500,0.0,0.0
2023-12-19 00:00:00-05:00,126.20564229345229,126.62070064382776,124.5454315105232,124.74308013916016,659100,0.0,0.0
2023-12-20 00:00:00-05:00,124.53553939309275,125.44470794882234,123.98213834662378,124.0908432006836,346400,0.0,0.0
2023-12-21 00:00:00-05:00,124.75295640698745,124.75295640698745,123.3793304865428,124.42684936523438,421900,0.0,0.0
2023-12-22 00:00:00-05:00,124.91107389434772,125.54353441719309,124.63437335804339,124.78260040283203,312200,0.0,0.0
2023-12-26 00:00:00-05:00,124.6541318886724,125.3755361630872,124.11060760387191,124.34778594970703,274700,0.0,0.0
2023-12-27 00:00:00-05:00,124.63437705637008,124.98025273701381,123.5572127486232,123.80426788330078,283100,0.0,0.0
2023-12-28 00:00:00-05:00,123.50780990540973,124.31815046958467,122.9346401664867,123.72521209716797,343600,0.0,0.0
2023-12-29 00:00:00-05:00,123.71532421021986,123.88331988220698,122.1045200037436,122.163818359375,313500,0.0,0.0
2024-01-02 00:00:00-05:00,121.16571704448889,122.6381634898007,120.84948678362613,121.43253326416016,313100,0.0,0.0
2024-01-03 00:00:00-05:00,123.67579826718928,125.76094414531796,121.69935724826344,123.8833236694336,531700,0.0,0.0
2024-01-04 00:00:00-05:00,123.70544279171902,124.43672385242652,122.66780824839185,122.75675201416016,353300,0.0,0.0
2024-01-05 00:00:00-05:00,122.32193344846323,122.90498746956777,121.54123834128632,122.73698425292969,423000,0.0,0.0
2024-01-08 00:00:00-05:00,122.60852284211245,123.68568715781811,120.92855092970204,122.88522338867188,352400,0.0,0.0
2024-01-09 00:00:00-05:00,122.25276515945477,123.17181058624556,121.52148405261278,123.16192626953125,250300,0.0,0.0
2024-01-10 00:00:00-05:00,122.99392771839973,123.94261853371319,122.76664121593656,123.71533203125,279600,0.0,0.0
2024-01-11 00:00:00-05:00,123.90308518645588,125.47435972243426,123.46827328767989,125.34588623046875,323100,0.0,0.0
2024-01-12 00:00:00-05:00,126.38352064693153,126.46258009735882,124.43672503242341,124.94071960449219,231700,0.0,0.0
2024-01-16 00:00:00-05:00,124.39719304252597,125.32612271932483,124.03155628512354,125.31623840332031,257500,0.0,0.0
2024-01-17 00:00:00-05:00,124.45649695012426,125.77082453543308,124.40708290742177,125.19766235351562,336900,0.0,0.0
2024-01-18 00:00:00-05:00,125.82024377996669,128.47855200982383,124.82213888440117,127.61880493164062,444200,0.0,0.0
2024-01-19 00:00:00-05:00,128.18209008005715,129.91147598730586,127.02585880393394,129.25924682617188,418000,0.0,0.0
2024-01-22 00:00:00-05:00,129.35806092328045,130.25734522161773,129.02206956314845,129.6446533203125,266200,0.0,0.0
2024-01-23 00:00:00-05:00,130.24746945845396,130.296883500987,128.79478406646476,130.27711486816406,217800,0.0,0.0
2024-01-24 00:00:00-05:00,130.5636832420236,130.73167891188575,129.00229309506915,129.23947143554688,294400,0.0,0.0
2024-01-25 00:00:00-05:00,130.47474445843625,130.82062764663073,128.84418675191344,129.7039337158203,332300,0.0,0.0
2024-01-26 00:00:00-05:00,130.12886723227166,131.02815149954128,129.85216670065762,130.1486358642578,219900,0.0,0.0
2024-01-29 00:00:00-05:00,129.50629241175295,131.02814526319688,128.95289137486424,130.69215393066406,187800,0.0,0.0
2024-01-30 00:00:00-05:00,130.47474422630816,131.5222554859971,130.0794620796869,130.69215393066406,228400,0.0,0.0
2024-01-31 00:00:00-05:00,131.21753326555097,131.61405979403008,128.03548917643582,128.7492218017578,537500,0.41,0.0
2024-02-01 00:00:00-05:00,129.3241702188752,129.96850501102756,128.48156460519286,129.3638153076172,298800,0.0,0.0
2024-02-02 00:00:00-05:00,128.82853516166915,129.57200543236544,127.56958793469315,128.96731567382812,344800,0.0,0.0
2024-02-05 00:00:00-05:00,128.00577179741288,130.30556552210692,126.9351726903174,129.5125274658203,319500,0.0,0.0
2024-02-06 00:00:00-05:00,129.34400751468976,130.2559959724917,128.17428812075116,129.9883575439453,369700,0.0,0.0
2024-02-07 00:00:00-05:00,130.26590766193826,131.267108845258,128.24366006025903,130.6525115966797,393000,0.0,0.0
2024-02-08 00:00:00-05:00,130.49389459022223,133.66603122338134,130.39475917552264,130.96971130371094,620700,0.0,0.0
2024-02-09 00:00:00-05:00,130.9598295245484,137.9980218237225,130.36504717145576,137.7501983642578,650900,0.0,0.0
2024-02-12 00:00:00-05:00,137.94844995595852,139.24704242432952,136.31280609713986,136.4119415283203,491300,0.0,0.0
2024-02-13 00:00:00-05:00,135.49994444056586,136.13437183240478,133.80482548099658,134.74655151367188,275900,0.0,0.0
2024-02-14 00:00:00-05:00,135.07368805267203,136.26325271615664,133.99318143841845,135.97576904296875,335000,0.0,0.0
2024-02-15 00:00:00-05:00,135.97576415206808,136.61019155766678,133.39840943442317,133.8643035888672,471400,0.0,0.0
2024-02-16 00:00:00-05:00,134.19142649181865,136.79853382457387,133.8642977479947,136.30288696289062,453900,0.0,0.0
2024-02-20 00:00:00-05:00,135.94602900109788,138.91991035459364,135.75768076189232,138.4738311767578,373000,0.0,0.0
2024-02-21 00:00:00-05:00,137.86912431703115,138.8901555787489,137.77991151768282,138.78111267089844,276300,0.0,0.0
2024-02-22 00:00:00-05:00,139.24703328340902,141.180053056989,138.8505218366026,140.2383270263672,295700,0.0,0.0
2024-02-23 00:00:00-05:00,140.73397752354722,140.81328284014006,139.37590990100838,140.12928771972656,190300,0.0,0.0
2024-02-26 00:00:00-05:00,140.26806091989897,140.82318298112742,139.57415834336345,140.6844024658203,199200,0.0,0.0
2024-02-27 00:00:00-05:00,140.68439280321402,140.9421237065279,138.58285510834838,139.08840942382812,244600,0.0,0.0
2024-02-28 00:00:00-05:00,138.43416809390393,140.01033667439933,138.11696195491015,139.18756103515625,189600,0.0,0.0
2024-02-29 00:00:00-05:00,139.40565497538333,140.396948797008,138.6126168928949,139.2371368408203,250600,0.0,0.0
2024-03-01 00:00:00-05:00,138.6621693304686,139.5642351130347,138.3449480820494,139.06858825683594,151400,0.0,0.0
2024-03-04 00:00:00-05:00,139.46512794883685,140.88267083058346,139.33625491378967,140.7240753173828,260300,0.0,0.0
2024-03-05 00:00:00-05:00,141.03136662496232,141.96318517392672,140.50598214538743,141.27919006347656,190200,0.0,0.0
2024-03-06 00:00:00-05:00,141.68560621173435,142.38943141864434,141.2395270563974,141.82440185546875,184000,0.0,0.0
2024-03-07 00:00:00-05:00,143.2419369981293,143.87636434934632,142.58767953801575,143.390625,250100,0.0,0.0
2024-03-08 00:00:00-05:00,143.45012922799398,143.8069955930077,141.72527260943724,141.84422302246094,185200,0.0,0.0
2024-03-11 00:00:00-04:00,141.54682126117743,142.13169604193249,140.7438757815281,141.4972686767578,226700,0.0,0.0
2024-03-12 00:00:00-04:00,141.5567547257704,141.60632243992973,140.24823967648902,141.17015075683594,242200,0.0,0.0
2024-03-13 00:00:00-04:00,141.75499169716946,141.75499169716946,139.70300658487778,139.93101501464844,336800,0.0,0.0
2024-03-14 00:00:00-04:00,140.12928235811054,140.3870132827191,139.13798862754268,139.70301818847656,235200,0.0,0.0
2024-03-15 00:00:00-04:00,138.82076653015324,141.1701429429702,138.5233905135426,139.7724151611328,599500,0.0,0.0
2024-03-18 00:00:00-04:00,139.70302038648921,140.06980935821068,137.72043289416052,138.0475616455078,299700,0.0,0.0
2024-03-19 00:00:00-04:00,137.67087488880983,139.09834024725149,137.67087488880983,138.29537963867188,253000,0.0,0.0
2024-03-20 00:00:00-04:00,138.41435230223198,138.85052397600484,137.92861291535908,138.7513885498047,220000,0.0,0.0
2024-03-21 00:00:00-04:00,139.08843342098686,140.36721091891917,138.0872321084364,139.9112091064453,255800,0.0,0.0
2024-03-22 00:00:00-04:00,140.77361081986902,141.20978246160044,139.8219773524016,140.35726928710938,276000,0.0,0.0
2024-03-25 00:00:00-04:00,139.9706607801355,142.7958537415966,139.9409231806204,141.71534729003906,316300,0.0,0.0
2024-03-26 00:00:00-04:00,141.58647326162372,143.05358362231945,141.378294940567,141.9532470703125,314200,0.0,0.0
2024-03-27 00:00:00-04:00,142.41915705286345,143.8862674213768,142.41915705286345,143.40054321289062,218200,0.0,0.0
2024-03-28 00:00:00-04:00,143.55916383297742,144.08454829465626,142.39933686940833,142.6372528076172,247800,0.0,0.0
2024-04-01 00:00:00-04:00,142.53811857132533,142.53811857132533,140.88265985977688,141.05117797851562,204400,0.0,0.0
2024-04-02 00:00:00-04:00,140.60509657020089,140.60509657020089,139.16772371206562,139.4056396484375,202600,0.0,0.0
2024-04-03 00:00:00-04:00,139.44529455067843,139.96077155277405,138.65225649959498,139.65347290039062,258700,0.0,0.0
2024-04-04 00:00:00-04:00,140.59520497929628,141.50719348295237,139.7426916849742,140.51589965820312,403600,0.0,0.0
2024-04-05 00:00:00-04:00,140.14911948491763,141.51709461595203,139.72285529394162,140.49606323242188,288300,0.0,0.0
2024-04-08 00:00:00-04:00,140.4365711471719,141.14039630193804,139.16771647109113,139.2866668701172,312500,0.0,0.0
2024-04-09 00:00:00-04:00,139.19745233021874,139.8715398767991,138.1466834827859,139.08840942382812,242600,0.0,0.0
2024-04-10 00:00:00-04:00,137.7700139920935,138.99922380210384,137.24462946565654,138.1863555908203,200700,0.0,0.0
2024-04-11 00:00:00-04:00,138.04755907083242,138.8207669683444,137.24461357156548,137.918701171875,265300,0.0,0.0
2024-04-12 00:00:00-04:00,136.967049267021,137.74025714606825,134.776298651701,136.0054931640625,299200,0.0,0.0
2024-04-15 00:00:00-04:00,137.40322972923067,138.59277922513755,136.63002180059405,136.99679565429688,319600,0.0,0.0
2024-04-16 00:00:00-04:00,136.5903543367824,138.17643033118634,136.1641052997771,137.38339233398438,281700,0.0,0.0
2024-04-17 00:00:00-04:00,137.67086969395015,138.2656368202302,137.14548525906264,137.19503784179688,565400,0.0,0.0
2024-04-18 00:00:00-04:00,137.1851472645947,138.22600877134346,137.01662913507428,137.8988800048828,246600,0.0,0.0
2024-04-19 00:00:00-04:00,137.84930054424208,138.7018137377263,137.56183202448253,138.12686157226562,276600,0.0,0.0
2024-04-22 00:00:00-04:00,138.33502731615243,139.92108802823105,138.03763620578138,139.09832763671875,298800,0.0,0.0
2024-04-23 00:00:00-04:00,138.55312824028502,139.93102591361165,138.30530480892452,138.9298095703125,417200,0.0,0.0
2024-04-24 00:00:00-04:00,139.13860773601874,140.08309687938592,138.83040745274005,139.19825744628906,559200,0.41,0.0
2024-04-25 00:00:00-04:00,139.0292386706214,140.4310674806865,138.11457442322126,139.3672637939453,694400,0.0,0.0
2024-04-26 00:00:00-04:00,141.17671738557638,147.6489684748245,141.07729109393654,142.49900817871094,489500,0.0,0.0
2024-04-29 00:00:00-04:00,144.05989608090238,147.16181733326363,143.53297011620526,145.5313262939453,676700,0.0,0.0
2024-04-30 00:00:00-04:00,144.89503861467492,145.25295202466614,143.2247709779419,143.5429229736328,585100,0.0,0.0
2024-05-01 00:00:00-04:00,144.1493863720236,146.35651652986462,143.74175981802546,144.53712463378906,359600,0.0,0.0
2024-05-02 00:00:00-04:00,144.914913867979,145.8792912599076,144.44763759888693,145.07398986816406,356500,0.0,0.0
2024-05-03 00:00:00-04:00,146.25708021006977,146.27696850093866,144.00023706156148,145.9588165283203,303300,0.0,0.0
2024-05-06 00:00:00-04:00,146.9033104690389,148.21566464459445,146.30679825586762,148.17588806152344,260200,0.0,0.0
2024-05-07 00:00:00-04:00,147.46008217334202,149.50813634180696,147.46008217334202,148.85195922851562,392900,0.0,0.0
2024-05-08 00:00:00-04:00,148.851952516239,149.99527896212328,148.61333853025974,149.91574096679688,223500,0.0,0.0
2024-05-09 00:00:00-04:00,150.12453415300365,150.8502975207552,147.76827976285352,148.21566772460938,299100,0.0,0.0
2024-05-10 00:00:00-04:00,148.08642917571808,148.13614232465676,147.23141459307158,147.6291046142578,186300,0.0,0.0
2024-05-13 00:00:00-04:00,147.66885717155736,148.6133462634333,146.00854125481663,147.01268005371094,167500,0.0,0.0
2024-05-14 00:00:00-04:00,147.4401857000379,147.4501222604799,146.61499607371425,147.04249572753906,137600,0.0,0.0
2024-05-15 00:00:00-04:00,147.102167082445,147.47995361006247,145.91906401390577,146.4261016845703,211100,0.0,0.0
2024-05-16 00:00:00-04:00,146.51557301812144,147.042498969268,145.58102052504745,146.68458557128906,235500,0.0,0.0
2024-05-17 00:00:00-04:00,146.99279178758786,147.31092858235036,146.27696503647144,146.81382751464844,169500,0.0,0.0
2024-05-20 00:00:00-04:00,146.73430448574354,147.54955760165925,146.1874902214491,147.31094360351562,163400,0.0,0.0
2024-05-21 00:00:00-04:00,147.08227500823682,147.81797492279415,146.2371970752046,147.72850036621094,280400,0.0,0.0
2024-05-22 00:00:00-04:00,147.21152602409944,147.96711422959115,146.61499864007018,147.92733764648438,283300,0.0,0.0
2024-05-23 00:00:00-04:00,147.7981084397933,148.0864204140624,146.7044799091405,146.86355590820312,171700,0.0,0.0
2024-05-24 00:00:00-04:00,147.61915308465808,147.96712995738272,146.50565136445627,147.23141479492188,162300,0.0,0.0
2024-05-28 00:00:00-04:00,146.76413330685176,146.92320930991465,144.9745813685235,145.8594207763672,318400,0.0,0.0
2024-05-29 00:00:00-04:00,144.8055608458342,145.84947630873282,143.67217081562745,144.00025939941406,229700,0.0,0.0
2024-05-30 00:00:00-04:00,144.28858574012926,146.1278509067867,144.15933458565246,145.292724609375,328100,0.0,0.0
2024-05-31 00:00:00-04:00,145.24299539146205,146.97291267642265,145.07398283832615,146.83372497558594,358900,0.0,0.0
2024-06-03 00:00:00-04:00,147.6390352585539,147.6390352585539,145.43190503298203,147.30101013183594,266200,0.0,0.0
2024-06-04 00:00:00-04:00,146.79394812461462,147.52966321073654,145.84945907277913,147.33082580566406,287900,0.0,0.0
2024-06-05 00:00:00-04:00,146.86355577498975,147.34076860142255,146.2272669496386,147.06239318847656,229200,0.0,0.0
2024-06-06 00:00:00-04:00,147.15185656875352,147.15185656875352,144.55698831854846,145.11375427246094,197600,0.0,0.0
2024-06-07 00:00:00-04:00,144.92485667565106,145.48160747169428,144.60670469487127,144.7061309814453,179100,0.0,0.0
2024-06-10 00:00:00-04:00,143.99030717125453,144.96462108446894,143.15518095992786,144.7458953857422,125800,0.0,0.0
2024-06-11 00:00:00-04:00,144.069842198694,144.8950318322786,143.51309140261802,144.6564178466797,147700,0.0,0.0
2024-06-12 00:00:00-04:00,145.39213888233263,145.4617251495329,143.234721873972,144.98451232910156,221300,0.0,0.0
2024-06-13 00:00:00-04:00,145.04416203536522,145.68045085271436,144.17921095389806,144.98451232910156,232400,0.0,0.0
2024-06-14 00:00:00-04:00,144.2487917043436,144.53711883402036,142.84696297947195,143.9107666015625,141500,0.0,0.0
2024-06-17 00:00:00-04:00,144.03007123818756,145.82957483514926,143.7318227074485,145.4816131591797,303800,0.0,0.0
2024-06-18 00:00:00-04:00,145.63073417824452,146.83372551658982,145.62079761754873,145.8395233154297,219900,0.0,0.0
2024-06-20 00:00:00-04:00,145.8097081220493,146.67465923985355,144.82544241638323,144.96463012695312,199900,0.0,0.0
2024-06-21 00:00:00-04:00,145.02426713243977,146.28690814864567,144.46751633892825,145.99859619140625,444100,0.0,0.0
2024-06-24 00:00:00-04:00,146.3664553693474,147.37059417305838,145.81964110185237,145.86935424804688,182900,0.0,0.0
2024-06-25 00:00:00-04:00,145.93892924098893,145.94888097165233,143.66221295627713,144.02012634277344,194500,0.0,0.0
2024-06-26 00:00:00-04:00,143.4136783501354,143.9505409043724,142.13116408870536,142.87681579589844,192400,0.0,0.0
2024-06-27 00:00:00-04:00,143.03587341308594,143.04582514463127,141.4451589090506,143.03587341308594,377300,0.0,0.0
2024-06-28 00:00:00-04:00,142.9463882562167,143.48326592890723,139.27777978400968,139.9936065673828,435100,0.0,0.0
2024-07-01 00:00:00-04:00,140.56031649992028,140.65972762098727,137.58764636312122,137.7367706298828,306400,0.0,0.0
2024-07-02 00:00:00-04:00,137.6771168664537,139.6854095648267,136.96129006644594,139.5859832763672,259400,0.0,0.0
2024-07-03 00:00:00-04:00,140.063219987868,140.58019424318394,139.75501971288125,140.4012451171875,143300,0.0,0.0
2024-07-05 00:00:00-04:00,140.17258910255097,140.61997710784055,138.91988448335212,140.08309936523438,207000,0.0,0.0
2024-07-08 00:00:00-04:00,140.8287476496575,141.67382566032194,140.67962337498633,140.68955993652344,249300,0.0,0.0
2024-07-09 00:00:00-04:00,140.04332622757835,140.45095278130893,138.93976114938218,139.2280731201172,238400,0.0,0.0
2024-07-10 00:00:00-04:00,139.93396267066512,140.808865480054,139.75501355255665,140.4708251953125,142000,0.0,0.0
2024-07-11 00:00:00-04:00,140.38135020760953,142.46918093443176,139.93396224338247,141.2661895751953,244500,0.0,0.0
2024-07-12 00:00:00-04:00,142.5785575352512,144.64650016944287,142.5785575352512,143.751708984375,263900,0.0,0.0
2024-07-15 00:00:00-04:00,143.92070998156234,144.8453259480649,142.31010721643665,142.59841918945312,319900,0.0,0.0
2024-07-16 00:00:00-04:00,143.01600293382853,144.45759319455206,143.01600293382853,143.7218780517578,178800,0.0,0.0
2024-07-17 00:00:00-04:00,143.50313696887406,144.92485395451703,143.50313696887406,144.02012634277344,242300,0.0,0.0
2024-07-18 00:00:00-04:00,143.77158413178512,146.39627739473178,143.7616475708671,145.43190002441406,434200,0.0,0.0
2024-07-19 00:00:00-04:00,145.74009743474508,145.74009743474508,143.82129446289454,145.0938720703125,251200,0.0,0.0
2024-07-22 00:00:00-04:00,145.14359967477395,146.7044894018996,144.40788450924526,146.33663940429688,235700,0.0,0.0
2024-07-23 00:00:00-04:00,147.01267493335766,147.64896373659573,144.82543312037194,145.1932830810547,234500,0.0,0.0
2024-07-24 00:00:00-04:00,145.22312418531487,145.77987499600405,143.06569203841158,143.30430603027344,250600,0.0,0.0
2024-07-25 00:00:00-04:00,142.4466137172535,143.66334017802635,140.84093471363238,141.11021423339844,558100,0.45,0.0
2024-07-26 00:00:00-04:00,142.7458185274977,150.8839040725973,141.9679134034649,146.26634216308594,562800,0.0,0.0
2024-07-29 00:00:00-04:00,146.18654807363913,147.9518012557539,144.78032917910988,147.4032745361328,390900,0.0,0.0
2024-07-30 00:00:00-04:00,146.98440955393974,147.50300282044066,145.01969618270712,145.35877990722656,411000,0.0,0.0
2024-07-31 00:00:00-04:00,146.10677238813136,148.4504707285892,145.0197017612093,146.58547973632812,280600,0.0,0.0
2024-08-01 00:00:00-04:00,146.48575417142177,149.13860271713426,145.03963404176758,146.63534545898438,335300,0.0,0.0
2024-08-02 00:00:00-04:00,146.1865607027143,146.60543153811187,143.36415499050057,145.2989501953125,213500,0.0,0.0
2024-08-05 00:00:00-04:00,143.04500195071893,143.04500195071893,139.10560747243943,140.30238342285156,448500,0.0,0.0
2024-08-06 00:00:00-04:00,140.9506421425725,145.69785981497913,140.7312314517885,144.5409698486328,476000,0.0,0.0
2024-08-07 00:00:00-04:00,145.61807332642232,146.86471806655007,143.08489791032852,143.2145538330078,353600,0.0,0.0
2024-08-08 00:00:00-04:00,144.07225793334294,145.76769187651146,144.07225793334294,145.16929626464844,268600,0.0,0.0
2024-08-09 00:00:00-04:00,145.01970173177108,145.01970173177108,143.08490654350197,143.56361389160156,263200,0.0,0.0
2024-08-12 00:00:00-04:00,143.58356293459363,143.7929907393466,142.38678696822322,142.90538024902344,221100,0.0,0.0
2024-08-13 00:00:00-04:00,143.12479067928683,144.9099945543652,142.71590275055541,143.98248291015625,212000,0.0,0.0
2024-08-14 00:00:00-04:00,143.74314177678474,144.42130926648593,143.10486022619372,143.5137481689453,115700,0.0,0.0
2024-08-15 00:00:00-04:00,144.61078772865739,146.94450299558522,144.61078772865739,146.61538696289062,277500,0.0,0.0
2024-08-16 00:00:00-04:00,145.7178086429149,146.4458448984164,145.21915075490517,146.326171875,250600,0.0,0.0
2024-08-19 00:00:00-04:00,145.9272513224637,147.33345499792665,145.52831588225743,146.57550048828125,191200,0.0,0.0
2024-08-20 00:00:00-04:00,146.58547636304425,147.91190824245643,146.58547636304425,147.7124481201172,387200,0.0,0.0
2024-08-21 00:00:00-04:00,147.77227873284713,149.16852996911774,147.06419304414976,148.92916870117188,267300,0.0,0.0
2024-08-22 00:00:00-04:00,149.16853288609883,149.99629161604025,148.27093952712292,148.590087890625,200400,0.0,0.0
2024-08-23 00:00:00-04:00,149.25828872832403,150.1259486188488,149.03887803129888,150.03619384765625,221400,0.0,0.0
2024-08-26 00:00:00-04:00,150.27553600322852,152.26019990468,149.7369921722213,149.75694274902344,235500,0.0,0.0
2024-08-27 00:00:00-04:00,149.6073354575319,151.133227391442,149.4377936001898,150.7941436767578,208300,0.0,0.0
2024-08-28 00:00:00-04:00,150.5248764586845,151.56209348205394,150.5248764586845,151.13323974609375,249000,0.0,0.0
2024-08-29 00:00:00-04:00,152.14052586050624,152.49956015138338,150.8041263625091,151.87124633789062,187100,0.0,0.0
2024-08-30 00:00:00-04:00,151.79146048136437,153.0281375417213,151.23296607276166,152.77880859375,178500,0.0,0.0
2024-09-03 00:00:00-04:00,151.7017037750138,151.97098329637666,149.32808735093408,149.6372528076172,362400,0.0,0.0
2024-09-04 00:00:00-04:00,149.19845240971176,150.49495079841,149.19845240971176,150.32540893554688,175800,0.0,0.0
2024-09-05 00:00:00-04:00,150.67447925817638,151.35264672627906,149.54750748684052,150.31544494628906,200600,0.0,0.0
2024-09-06 00:00:00-04:00,149.9763613557829,152.70899702647708,149.9763613557829,151.9709930419922,319100,0.0,0.0
2024-09-09 00:00:00-04:00,152.16047510581276,152.64915009618142,151.03350341028641,151.5022430419922,241500,0.0,0.0
2024-09-10 00:00:00-04:00,151.46235157142956,152.37988031700135,151.03351306529763,151.1033172607422,158100,0.0,0.0
2024-09-11 00:00:00-04:00,150.38525079268496,150.4750207850162,148.23106011554742,150.43511962890625,178000,0.0,0.0
2024-09-12 00:00:00-04:00,150.4849887540154,151.60197764192228,149.56745999354442,151.5521240234375,200400,0.0,0.0
2024-09-13 00:00:00-04:00,151.78149156962914,152.5992825990635,151.492261470345,151.87124633789062,138600,0.0,0.0
2024-09-16 00:00:00-04:00,152.62921458132197,152.7588705145806,151.66183218445363,152.57936096191406,182900,0.0,0.0
2024-09-17 00:00:00-04:00,153.5866296991098,155.15242277397783,151.46234222382526,152.61923217773438,259900,0.0,0.0
2024-09-18 00:00:00-04:00,153.3472690170848,155.07263627515385,152.30009962123864,152.6591339111328,214200,0.0,0.0
2024-09-19 00:00:00-04:00,154.60390786200904,158.38372825071872,154.60390786200904,156.47885131835938,412400,0.0,0.0
2024-09-20 00:00:00-04:00,155.8904363617549,155.8904363617549,154.06534655021557,155.49151611328125,663300,0.0,0.0
2024-09-23 00:00:00-04:00,155.75080963595366,156.48882882047508,154.32465531926172,155.5413818359375,315800,0.0,0.0
2024-09-24 00:00:00-04:00,155.7607751810832,156.65836853663214,155.61118389740747,156.20957946777344,246200,0.0,0.0
2024-09-25 00:00:00-04:00,156.87777486028946,157.44623694025017,155.4516053850471,156.71820068359375,284100,0.0,0.0
2024-09-26 00:00:00-04:00,157.5160583780924,158.6330471936873,157.2766971099658,157.9548797607422,371600,0.0,0.0
2024-09-27 00:00:00-04:00,158.25407181382246,161.11637865217875,157.83520098285544,159.46083068847656,354300,0.0,0.0
2024-09-30 00:00:00-04:00,158.86243164794053,159.98940340400793,158.50339734091747,159.76002502441406,289800,0.0,0.0
2024-10-01 00:00:00-04:00,160.10908102182546,160.10908102182546,158.62309013398428,159.54061889648438,192200,0.0,0.0
2024-10-02 00:00:00-04:00,159.4309042020019,159.6802331516974,157.53601027144867,158.32388305664062,186900,0.0,0.0
2024-10-03 00:00:00-04:00,157.56593495409092,160.02930629497408,156.21955248369235,158.5133819580078,367000,0.0,0.0
2024-10-04 00:00:00-04:00,159.51069006003982,161.0365820029643,158.90232681876836,160.1489715576172,350500,0.0,0.0
2024-10-07 00:00:00-04:00,158.96217139030824,159.21150035071827,157.58587065913858,158.26405334472656,223300,0.0,0.0
2024-10-08 00:00:00-04:00,157.85514229856898,158.59316146287298,156.67831696887936,158.2440948486328,205900,0.0,0.0
2024-10-09 00:00:00-04:00,157.92496457453083,159.62039840768432,157.69557098143002,159.27133178710938,152600,0.0,0.0
2024-10-10 00:00:00-04:00,157.62577532209792,158.9522072471334,157.62577532209792,158.79263305664062,168500,0.0,0.0
2024-10-11 00:00:00-04:00,160.50801550631274,161.48538077936988,159.91960280646023,161.1163787841797,194400,0.0,0.0
2024-10-14 00:00:00-04:00,164.5471496015545,167.3097035833241,163.02125754964115,166.74124145507812,469700,0.0,0.0
2024-10-15 00:00:00-04:00,166.8708837749407,169.2045990501098,166.0431098506034,168.2272186279297,397300,0.0,0.0
2024-10-16 00:00:00-04:00,168.2471783490178,168.74583626660103,165.47464154468156,165.5943145751953,330000,0.0,0.0
2024-10-17 00:00:00-04:00,166.53178529804745,167.86820001373155,166.07302855953967,167.43934631347656,238200,0.0,0.0
2024-10-18 00:00:00-04:00,168.64610780732278,168.64610780732278,167.32964364723057,168.1773681640625,171500,0.0,0.0
2024-10-21 00:00:00-04:00,168.01780020340925,168.0377507811335,165.85362666420463,165.883544921875,217900,0.0,0.0
2024-10-22 00:00:00-04:00,165.27517443013002,165.92342360843475,164.3676134062384,165.36492919921875,228500,0.0,0.0
2024-10-23 00:00:00-04:00,166.06305748263202,167.52911300642305,165.71400606419698,167.1999969482422,318100,0.0,0.0
2024-10-24 00:00:00-04:00,168.32000732421875,168.3300018310547,166.14999389648438,166.5500030517578,547300,0.45,0.0
2024-10-25 00:00:00-04:00,168.9199981689453,169.85000610351562,164.61000061035156,168.91000366210938,518900,0.0,0.0
2024-10-28 00:00:00-04:00,169.89999389648438,171.41000366210938,168.75999450683594,169.10000610351562,350000,0.0,0.0
2024-10-29 00:00:00-04:00,169.02999877929688,169.49000549316406,167.63999938964844,168.6999969482422,338100,0.0,0.0
2024-10-30 00:00:00-04:00,168.35000610351562,170.1999969482422,168.1199951171875,169.02999877929688,290300,0.0,0.0
2024-10-31 00:00:00-04:00,169.08999633789062,170.27999877929688,167.86000061035156,167.91000366210938,329900,0.0,0.0
2024-11-01 00:00:00-04:00,168.10000610351562,170.99000549316406,167.6199951171875,169.41000366210938,316300,0.0,0.0
2024-11-04 00:00:00-05:00,169.6300048828125,170.57000732421875,168.17999267578125,168.25999450683594,191800,0.0,0.0
2024-11-05 00:00:00-05:00,167.74000549316406,170.36000061035156,167.74000549316406,170.30999755859375,206200,0.0,0.0
2024-11-06 00:00:00-05:00,175.14999389648438,175.14999389648438,172.13999938964844,173.16000366210938,264100,0.0,0.0
2024-11-07 00:00:00-05:00,174.1999969482422,175.4600067138672,173.5399932861328,174.7100067138672,412300,0.0,0.0
2024-11-08 00:00:00-05:00,174.6999969482422,177.83999633789062,174.49000549316406,175.75999450683594,309200,0.0,0.0
2024-11-11 00:00:00-05:00,176.32000732421875,178.02999877929688,175.89999389648438,176.14999389648438,189100,0.0,0.0
2024-11-12 00:00:00-05:00,176.64999389648438,177.24000549316406,174.9499969482422,175.6999969482422,179800,0.0,0.0
2024-11-13 00:00:00-05:00,175.5,176.38999938964844,175.0500030517578,175.5,168400,0.0,0.0
2024-11-14 00:00:00-05:00,175.14999389648438,175.7899932861328,173.91000366210938,174.10000610351562,198200,0.0,0.0
2024-11-15 00:00:00-05:00,172.97000122070312,173.75999450683594,166.1699981689453,166.49000549316406,620500,0.0,0.0
2024-11-18 00:00:00-05:00,166.38999938964844,167.82000732421875,164.3300018310547,166.69000244140625,384400,0.0,0.0
2024-11-19 00:00:00-05:00,166.4199981689453,167.6699981689453,166.1999969482422,166.89999389648438,287600,0.0,0.0
2024-11-20 00:00:00-05:00,167.0,168.94000244140625,165.64999389648438,168.72999572753906,221800,0.0,0.0
2024-11-21 00:00:00-05:00,168.69000244140625,170.22999572753906,167.74000549316406,169.8800048828125,205100,0.0,0.0
2024-11-22 00:00:00-05:00,170.17999267578125,172.07000732421875,170.17999267578125,171.50999450683594,241600,0.0,0.0
2024-11-25 00:00:00-05:00,172.0500030517578,174.02000427246094,171.74000549316406,172.5,270100,0.0,0.0
2024-11-26 00:00:00-05:00,172.86000061035156,172.86000061035156,171.16000366210938,172.0399932861328,140300,0.0,0.0
2024-11-27 00:00:00-05:00,172.6699981689453,173.8800048828125,171.52000427246094,171.72999572753906,167200,0.0,0.0
2024-11-29 00:00:00-05:00,172.58999633789062,173.49000549316406,172.08999633789062,172.9600067138672,117300,0.0,0.0
2024-12-02 00:00:00-05:00,172.97999572753906,173.11000061035156,170.83999633789062,172.75999450683594,170900,0.0,0.0
2024-12-03 00:00:00-05:00,173.4499969482422,173.4499969482422,171.08999633789062,172.39999389648438,160100,0.0,0.0
2024-12-04 00:00:00-05:00,171.88999938964844,172.88999938964844,171.02999877929688,172.58999633789062,173400,0.0,0.0
2024-12-05 00:00:00-05:00,172.00999450683594,172.44000244140625,170.52999877929688,171.10000610351562,245000,0.0,0.0
2024-12-06 00:00:00-05:00,171.60000610351562,172.64999389648438,170.85000610351562,171.14999389648438,209200,0.0,0.0
2024-12-09 00:00:00-05:00,171.55999755859375,173.47000122070312,170.22999572753906,170.7899932861328,301700,0.0,0.0
2024-12-10 00:00:00-05:00,170.72000122070312,171.3699951171875,168.19000244140625,170.91000366210938,287000,0.0,0.0
2024-12-11 00:00:00-05:00,171.8800048828125,174.10000610351562,171.75,172.30999755859375,418600,0.0,0.0
2024-12-12 00:00:00-05:00,171.6699981689453,172.60000610351562,170.77999877929688,171.63999938964844,178300,0.0,0.0
2024-12-13 00:00:00-05:00,170.91000366210938,171.0,169.82000732421875,170.1999969482422,153200,0.0,0.0
2024-12-16 00:00:00-05:00,170.13999938964844,170.92999267578125,167.58999633789062,167.6300048828125,236100,0.0,0.0
2024-12-17 00:00:00-05:00,166.89999389648438,166.91000366210938,162.83999633789062,163.08999633789062,511900,0.0,0.0
2024-12-18 00:00:00-05:00,163.69000244140625,164.4199981689453,157.9199981689453,158.2100067138672,468587,0.0,0.0
