Date,Open,High,Low,Close,Volume,Dividends,Stock Splits
2022-01-03 00:00:00-05:00,117.7417699108511,118.28027940431618,114.71263933682688,116.18392944335938,234900,0.0,0.0
2022-01-04 00:00:00-05:00,116.35703411272208,118.20335884363392,115.35693971598424,116.72245025634766,337300,0.0,0.0
2022-01-05 00:00:00-05:00,116.5878188775357,119.37654255454909,116.5878188775357,118.33798217773438,367600,0.0,0.0
2022-01-06 00:00:00-05:00,118.79955169677014,119.24189979950039,117.32826168762276,117.84754180908203,231900,0.0,0.0
2022-01-07 00:00:00-05:00,118.01104169237543,119.03998381542543,117.28982037238777,118.9342041015625,335100,0.0,0.0
2022-01-10 00:00:00-05:00,118.23220465513087,119.13613766682059,117.01093985853582,117.36674499511719,398400,0.0,0.0
2022-01-11 00:00:00-05:00,117.58791394706584,118.26105819681567,116.0973944004296,117.8187026977539,135500,0.0,0.0
2022-01-12 00:00:00-05:00,117.62638077094364,118.28028834959407,115.99161549263863,116.64552307128906,206600,0.0,0.0
2022-01-13 00:00:00-05:00,117.00132751464844,117.63600579025834,115.75121497689473,117.00132751464844,193200,0.0,0.0
2022-01-14 00:00:00-05:00,116.6262898505808,116.82823093188502,115.270397637069,116.5301284790039,179000,0.0,0.0
2022-01-18 00:00:00-05:00,115.98200183532012,116.74168915122196,114.27030445829881,115.75121307373047,232500,0.0,0.0
2022-01-19 00:00:00-05:00,116.12624673954012,117.22250252012462,115.87622130321522,116.76091766357422,252600,0.0,0.0
2022-01-20 00:00:00-05:00,116.1839324779775,117.61675661002346,114.25105751467459,114.27029418945312,297700,0.0,0.0
2022-01-21 00:00:00-05:00,114.64532720068591,115.4627097890764,111.38540784775036,111.91429901123047,351800,0.0,0.0
2022-01-24 00:00:00-05:00,111.15462046653742,112.75092709237597,109.65448254761812,112.53936767578125,329300,0.0,0.0
2022-01-25 00:00:00-05:00,110.31800511434675,112.45282121802009,108.76016455140191,111.5777359008789,470000,0.0,0.0
2022-01-26 00:00:00-05:00,111.33733863733565,113.03942506979597,110.01991238148847,110.76998138427734,1542500,0.0,0.0
2022-01-27 00:00:00-05:00,111.33733599898369,113.76064369772266,108.34667106063104,109.28907012939453,263900,0.0,0.0
2022-01-28 00:00:00-05:00,109.46215014054405,110.68341484216155,108.1350984033289,110.63533782958984,323100,0.0,0.0
2022-01-31 00:00:00-05:00,110.59688137311167,112.8374699091923,109.84681241508412,112.79901123046875,486300,0.0,0.0
2022-02-01 00:00:00-05:00,112.59706511029461,114.36646516996959,111.98162352518393,112.97210693359375,214000,0.0,0.0
2022-02-02 00:00:00-05:00,112.58618462678974,112.89490395553123,111.92051294445771,112.5090103149414,363600,0.38,0.0
2022-02-03 00:00:00-05:00,112.33536885240096,113.24222785027685,110.85930415287876,111.12943267822266,167700,0.0,0.0
2022-02-04 00:00:00-05:00,110.63740431983369,111.93981386478512,109.65336367888928,111.19696044921875,242700,0.0,0.0
2022-02-07 00:00:00-05:00,111.54426568873583,111.9398088933551,110.2997387778026,110.69528198242188,263300,0.0,0.0
2022-02-08 00:00:00-05:00,110.94611721353087,112.3353579061572,110.69528045281787,111.9591064453125,204200,0.0,0.0
2022-02-09 00:00:00-05:00,112.95279826192224,113.51235436706477,112.10381455468539,112.44148254394531,295900,0.0,0.0
2022-02-10 00:00:00-05:00,111.44779534059438,113.11681426082345,109.65336906721824,110.56987762451172,267100,0.0,0.0
2022-02-11 00:00:00-05:00,110.98472467347236,112.33537473132662,108.89122113204611,109.70160675048828,230600,0.0,0.0
2022-02-14 00:00:00-05:00,109.7016064550066,110.47340858897323,108.47637847981902,110.0778579711914,266600,0.0,0.0
2022-02-15 00:00:00-05:00,110.6181224091483,112.03629723760223,109.40253662430858,110.0778579711914,263000,0.0,0.0
2022-02-16 00:00:00-05:00,110.22256605678957,111.02330944104061,109.11310330710383,110.65670013427734,271400,0.0,0.0
2022-02-17 00:00:00-05:00,109.94277749659553,112.161702784349,109.325338824611,111.53461456298828,362400,0.0,0.0
2022-02-18 00:00:00-05:00,112.1810083939842,117.2362909061186,110.38657473150454,114.2648696899414,462300,0.0,0.0
2022-02-22 00:00:00-05:00,114.32273300161589,115.9435112828922,113.18432912119026,114.90158081054688,437200,0.0,0.0
2022-02-23 00:00:00-05:00,115.51902869806428,116.06893526461693,113.45446668606313,113.54129791259766,321100,0.0,0.0
2022-02-24 00:00:00-05:00,112.17135076836817,113.20363179146504,110.67599439758388,112.75020599365234,349300,0.0,0.0
2022-02-25 00:00:00-05:00,113.02998972858647,117.31347003167701,112.70197126043453,116.70568084716797,260100,0.0,0.0
2022-02-28 00:00:00-05:00,115.2585542148916,117.72830908542254,115.07524956543966,117.5835952758789,316300,0.0,0.0
2022-03-01 00:00:00-05:00,117.66076297224882,118.60622003651386,114.35167428799505,114.90158081054688,325700,0.0,0.0
2022-03-02 00:00:00-05:00,114.89194871424273,115.82775637171864,113.84037589366487,114.20697784423828,435100,0.0,0.0
2022-03-03 00:00:00-05:00,114.68935555404576,115.52868981246638,113.27118074288414,115.12349700927734,196100,0.0,0.0
2022-03-04 00:00:00-05:00,113.8886162460505,116.14612525116544,113.54130603596353,115.95317840576172,206700,0.0,0.0
2022-03-07 00:00:00-05:00,115.10417907614203,116.10751872973158,112.34499686888307,112.41252899169922,337300,0.0,0.0
2022-03-08 00:00:00-05:00,112.83702586996273,114.12014362126698,106.16096552008676,106.30567932128906,382800,0.0,0.0
2022-03-09 00:00:00-05:00,107.2607780346636,110.34797142767376,107.2607780346636,109.277099609375,224800,0.0,0.0
2022-03-10 00:00:00-05:00,107.8878691733967,109.65336139286545,107.51161769848693,108.3027114868164,223200,0.0,0.0
2022-03-11 00:00:00-05:00,109.30604983363575,109.71124259222553,108.28341102709282,108.34130096435547,237100,0.0,0.0
2022-03-14 00:00:00-04:00,108.84296216785393,111.82403986524349,108.79472178241275,110.4830322265625,173800,0.0,0.0
2022-03-15 00:00:00-04:00,111.03294489917319,112.80808666313702,110.06819602062433,112.69231414794922,199500,0.0,0.0
2022-03-16 00:00:00-04:00,113.57024437856666,114.91124479252748,110.32868740886923,112.86597442626953,266800,0.0,0.0
2022-03-17 00:00:00-04:00,113.10716193065242,114.33239718752077,111.2066053703174,114.23592376708984,163300,0.0,0.0
2022-03-18 00:00:00-04:00,113.93684113007664,114.64111105029676,112.17134891511851,113.58953094482422,286800,0.0,0.0
2022-03-21 00:00:00-04:00,113.5798798759341,114.48673874612884,112.55724113910706,114.47709655761719,309100,0.0,0.0
2022-03-22 00:00:00-04:00,115.55762397532759,116.21365353259448,113.22293336522634,113.52200317382812,294100,0.0,0.0
2022-03-23 00:00:00-04:00,113.64741513095844,113.93683536372131,110.01995746882471,110.62774658203125,256800,0.0,0.0
2022-03-24 00:00:00-04:00,110.9461239612976,112.12311880186336,109.98137505728631,111.76615905761719,210100,0.0,0.0
2022-03-25 00:00:00-04:00,112.73089577374684,113.12644631464258,111.9108607660852,113.10714721679688,148000,0.0,0.0
2022-03-28 00:00:00-04:00,113.29044927535443,113.42551351541513,110.9557589995062,112.38358306884766,167300,0.0,0.0
2022-03-29 00:00:00-04:00,113.36764504605513,115.3743171596195,113.36764504605513,115.11383819580078,184700,0.0,0.0
2022-03-30 00:00:00-04:00,115.35502376013456,115.35502376013456,114.07190597796584,114.63146209716797,156600,0.0,0.0
2022-03-31 00:00:00-04:00,114.22627723671773,115.60586853065786,113.32906041813499,113.35800170898438,211200,0.0,0.0
2022-04-01 00:00:00-04:00,113.98507508882619,115.42254877643136,113.15539051090524,114.82440185546875,400800,0.0,0.0
2022-04-04 00:00:00-04:00,114.53499357856077,114.53499357856077,111.13907323997073,114.23592376708984,286300,0.0,0.0
2022-04-05 00:00:00-04:00,113.50270571424186,115.00771159194305,113.44481577709584,113.57988739013672,225300,0.0,0.0
2022-04-06 00:00:00-04:00,113.12645752431791,114.72793686308921,112.24853249657495,114.16838073730469,194300,0.0,0.0
2022-04-07 00:00:00-04:00,113.75353779726235,116.34870713844478,112.51865311513588,115.76985931396484,331900,0.0,0.0
2022-04-08 00:00:00-04:00,115.58655347427758,117.921251206669,115.58655347427758,117.13015747070312,305300,0.0,0.0
2022-04-11 00:00:00-04:00,116.86003632903035,117.98879818158056,114.76653289794922,114.76653289794922,208000,0.0,0.0
2022-04-12 00:00:00-04:00,115.02702064288923,115.95317875240647,112.29677934560748,112.8852767944336,187400,0.0,0.0
2022-04-13 00:00:00-04:00,112.76949479608568,113.84036663034269,112.76949479608568,113.72459411621094,120200,0.0,0.0
2022-04-14 00:00:00-04:00,113.28081975550671,114.51569723179632,112.83703612249327,113.26152801513672,163300,0.0,0.0
2022-04-18 00:00:00-04:00,112.66335569161717,113.39656678851351,109.57616269486734,109.99100494384766,137100,0.0,0.0
2022-04-19 00:00:00-04:00,110.53128326543148,113.49306214993237,109.50865176746802,113.09751892089844,221600,0.0,0.0
2022-04-20 00:00:00-04:00,113.82108332208605,115.5286857094226,113.19399503821207,115.2874984741211,141200,0.0,0.0
2022-04-21 00:00:00-04:00,116.0110645942989,116.1075380200003,114.16839051346466,114.74724578857422,178200,0.0,0.0
2022-04-22 00:00:00-04:00,114.41920886138898,114.41920886138898,112.32570568334667,112.5090103149414,179900,0.0,0.0
2022-04-25 00:00:00-04:00,112.39324592982716,112.39324592982716,108.2255310103666,111.33202362060547,379600,0.0,0.0
2022-04-26 00:00:00-04:00,110.70288840071163,111.65146193444946,106.89889806451625,107.03440856933594,295300,0.38,0.0
2022-04-27 00:00:00-04:00,107.38285376112813,109.36711871341065,107.0247146773615,107.5377197265625,231500,0.0,0.0
2022-04-28 00:00:00-04:00,107.6151462267897,108.64115622818377,106.03741289080882,108.50564575195312,289200,0.0,0.0
2022-04-29 00:00:00-04:00,108.91217939267737,112.71616900359386,108.91217939267737,111.14811706542969,640200,0.0,0.0
2022-05-02 00:00:00-04:00,111.71919707057698,113.21950116992255,108.47661220093725,109.75428771972656,457000,0.0,0.0
2022-05-03 00:00:00-04:00,109.36710556001088,111.67079836621598,109.02832937814745,110.18017578125,225400,0.0,0.0
2022-05-04 00:00:00-04:00,109.72525045590284,113.03559055493056,109.10577186607662,113.00655364990234,346900,0.0,0.0
2022-05-05 00:00:00-04:00,111.78694796757823,112.4548262985309,108.28302370319936,109.1832046508789,179000,0.0,0.0
2022-05-06 00:00:00-04:00,108.10879345428657,108.13783035789473,106.24067634623638,107.66354370117188,331800,0.0,0.0
2022-05-09 00:00:00-04:00,106.47299250713762,107.53772095525542,103.2400888247913,103.57886505126953,276700,0.0,0.0
2022-05-10 00:00:00-04:00,104.11122118550323,105.14691268257285,100.6072966699728,101.18805694580078,411800,0.0,0.0
2022-05-11 00:00:00-04:00,101.04285515339184,103.9757005366806,100.19107399109295,100.72343444824219,297800,0.0,0.0
2022-05-12 00:00:00-04:00,100.39434997670615,103.24008494162238,99.93941875336048,103.03681182861328,389300,0.0,0.0
2022-05-13 00:00:00-04:00,103.56919369627943,104.81783252514512,103.33689103049026,104.0628433227539,226900,0.0,0.0
2022-05-16 00:00:00-04:00,103.8498822682102,104.94364758398505,102.94001982027594,104.85653686523438,202500,0.0,0.0
2022-05-17 00:00:00-04:00,106.5988151067139,106.850480596032,104.75006073439316,105.4663314819336,311200,0.0,0.0
2022-05-18 00:00:00-04:00,104.52742413508254,105.40824958776734,100.24914806858547,100.73311614990234,325900,0.0,0.0
2022-05-19 00:00:00-04:00,100.07493026216191,101.24613226149188,98.98116493669698,100.17172241210938,357000,0.0,0.0
2022-05-20 00:00:00-04:00,101.61395273707559,101.92369204766783,94.0737283177563,96.5226058959961,796300,0.0,0.0
2022-05-23 00:00:00-04:00,97.71316306250661,101.2364504786568,96.47420582404953,100.8783187866211,545200,0.0,0.0
2022-05-24 00:00:00-04:00,101.14933157196936,102.23342276025205,99.52319848192883,101.58489990234375,567400,0.0,0.0
2022-05-25 00:00:00-04:00,100.16204494399477,101.89464430772557,99.1941087080584,101.10093688964844,493400,0.0,0.0
2022-05-26 00:00:00-04:00,102.31086130259754,103.52078164621751,101.9043298394855,103.11425018310547,188200,0.0,0.0
2022-05-27 00:00:00-04:00,103.5304576215943,105.43729316422942,103.5304576215943,105.39857482910156,178000,0.0,0.0
2022-05-31 00:00:00-04:00,104.6145426393693,105.92125498708732,102.94000982215965,103.65628051757812,306100,0.0,0.0
2022-06-01 00:00:00-04:00,104.04346749279485,104.45968038387844,102.24310544157446,103.81116485595703,313900,0.0,0.0
2022-06-02 00:00:00-04:00,104.14993257946007,106.50201781683108,103.40462496236874,106.30843353271484,145400,0.0,0.0
2022-06-03 00:00:00-04:00,105.23403335713091,106.24068797272348,104.76942069425444,105.31147003173828,139800,0.0,0.0
2022-06-06 00:00:00-04:00,106.07612693604526,107.25701030746563,104.85653261437233,105.74703216552734,207400,0.0,0.0
2022-06-07 00:00:00-04:00,105.15659407904302,106.80208275748781,104.92429144574002,106.647216796875,132900,0.0,0.0
2022-06-08 00:00:00-04:00,105.46632895853068,105.88254182581218,103.82084034914836,104.25640869140625,157700,0.0,0.0
2022-06-09 00:00:00-04:00,103.3465309092383,104.2467117494209,102.40763912486315,102.43667602539062,193800,0.0,0.0
2022-06-10 00:00:00-04:00,100.25883706255925,102.49476740382059,99.8232613256494,101.82688903808594,266800,0.0,0.0
2022-06-13 00:00:00-04:00,99.57159961244251,99.9200572354336,97.80995602277297,98.73917388916016,252100,0.0,0.0
2022-06-14 00:00:00-04:00,98.35200835280136,99.00052390356062,95.23525227512881,96.32901763916016,227900,0.0,0.0
2022-06-15 00:00:00-04:00,97.08399342586709,97.99384833487046,95.38042382841516,97.15174865722656,283300,0.0,0.0
2022-06-16 00:00:00-04:00,95.71921564085466,95.71921564085466,91.01504485201731,91.73131561279297,620400,0.0,0.0
2022-06-17 00:00:00-04:00,91.46029666727229,95.30300486521759,91.45062262154339,94.37378692626953,458500,0.0,0.0
2022-06-21 00:00:00-04:00,94.83840871608611,95.535316698797,93.97693855339695,94.07373809814453,236100,0.0,0.0
2022-06-22 00:00:00-04:00,93.28002567222966,95.6708221757161,93.15418922457327,95.30300903320312,228200,0.0,0.0
2022-06-23 00:00:00-04:00,95.45785387614562,96.13540614280652,94.05434220268255,95.7579116821289,152100,0.0,0.0
2022-06-24 00:00:00-04:00,96.84202450103547,99.35865726718576,96.47420400079217,99.32962036132812,327300,0.0,0.0
2022-06-27 00:00:00-04:00,99.32961669011974,100.8105579122634,98.71981215057782,100.24915313720703,185200,0.0,0.0
2022-06-28 00:00:00-04:00,100.87831059683016,101.02350250184239,98.71013560555323,99.40704345703125,280200,0.0,0.0
2022-06-29 00:00:00-04:00,99.19411013638518,100.55889640862841,98.0906560175427,100.0749282836914,220900,0.0,0.0
2022-06-30 00:00:00-04:00,99.04890702629211,100.18139053829404,98.11968921761617,99.90068817138672,205900,0.0,0.0
2022-07-01 00:00:00-04:00,100.02652790935127,101.31388488620362,98.88437023081858,101.13965606689453,262300,0.0,0.0
2022-07-05 00:00:00-04:00,100.02651890131425,100.02651890131425,97.73251493589649,99.61998748779297,230200,0.0,0.0
2022-07-06 00:00:00-04:00,100.21043111164866,100.22979397063659,98.25520328558355,99.34896850585938,286400,0.0,0.0
2022-07-07 00:00:00-04:00,99.1650602388782,99.98781191256664,98.58429999874357,99.80390167236328,221200,0.0,0.0
2022-07-08 00:00:00-04:00,99.4360943652147,99.7264708098022,96.79362514934,96.80330657958984,208100,0.0,0.0
2022-07-11 00:00:00-04:00,96.6097208680465,96.90978614619273,95.31268975558885,96.35806274414062,186900,0.0,0.0
2022-07-12 00:00:00-04:00,96.28061505746588,98.58430055643085,96.0386310073103,97.28726959228516,284300,0.0,0.0
2022-07-13 00:00:00-04:00,96.53228363572835,98.06161726937513,96.3193364831938,97.442138671875,202500,0.0,0.0
2022-07-14 00:00:00-04:00,96.38709457973852,96.70651531800402,95.18684829985015,96.11607360839844,199800,0.0,0.0
2022-07-15 00:00:00-04:00,97.57765114992404,97.57765114992404,96.02895462448811,96.80330657958984,195300,0.0,0.0
2022-07-18 00:00:00-04:00,97.34533212884443,97.71314518397288,94.56735289622542,94.95452880859375,179900,0.0,0.0
2022-07-19 00:00:00-04:00,95.39012573860374,97.84867745282509,95.39012573860374,97.79060363769531,635400,0.0,0.0
2022-07-20 00:00:00-04:00,97.4421316415043,99.19410111610162,97.4324575969179,98.55525970458984,458900,0.0,0.0
2022-07-21 00:00:00-04:00,98.6423811796512,100.27818832760123,98.32296046294894,100.16204071044922,138900,0.0,0.0
2022-07-22 00:00:00-04:00,100.28787204269864,100.64601110153538,99.0489148663958,100.27819061279297,214600,0.0,0.0
2022-07-25 00:00:00-04:00,100.3943444846472,101.15901497368696,99.61031852078179,100.58792877197266,267400,0.0,0.0
2022-07-26 00:00:00-04:00,100.17020162451607,100.91824467106436,98.97526724828157,100.86967468261719,262200,0.38,0.0
2022-07-27 00:00:00-04:00,101.26797713599707,103.50240404727282,100.68508541492916,103.00694274902344,229200,0.0,0.0
2022-07-28 00:00:00-04:00,103.05552239303853,104.74591064453125,102.15203761154112,104.74591064453125,249800,0.0,0.0
2022-07-29 00:00:00-04:00,104.11443989582583,106.36829333346732,103.35667991249633,104.6876220703125,424400,0.0,0.0
2022-08-01 00:00:00-04:00,103.26924406560903,105.5522408578072,102.59891454085113,105.11506652832031,277000,0.0,0.0
2022-08-02 00:00:00-04:00,104.7847744453481,104.95964271227939,102.81265351998869,103.55097961425781,209700,0.0,0.0
2022-08-03 00:00:00-04:00,104.269862969088,105.71737876550095,103.40523879301384,104.5710220336914,260700,0.0,0.0
2022-08-04 00:00:00-04:00,104.14358424401739,104.16301816839783,102.84179296160565,103.40525817871094,292600,0.0,0.0
2022-08-05 00:00:00-04:00,102.65719811713441,103.6286867127243,102.09373295284352,102.63777160644531,174600,0.0,0.0
2022-08-08 00:00:00-04:00,103.10409705994307,104.92078366764714,102.98752315502082,104.21159362792969,219300,0.0,0.0
2022-08-09 00:00:00-04:00,104.68762844593176,104.92078366764714,103.45383359845157,104.21159362792969,249200,0.0,0.0
2022-08-10 00:00:00-04:00,106.11569963132797,107.58264203367101,104.96934282366831,106.64029693603516,152900,0.0,0.0
2022-08-11 00:00:00-04:00,107.48550093623498,108.11697002520668,106.4265818920995,106.5042953491211,171100,0.0,0.0
2022-08-12 00:00:00-04:00,107.36891757783482,107.98096014380401,106.9997545754706,107.91295623779297,201300,0.0,0.0
2022-08-15 00:00:00-04:00,107.5243650053825,109.22447015753816,107.5243650053825,108.71929931640625,146500,0.0,0.0
2022-08-16 00:00:00-04:00,107.99068215173514,109.05931818693435,107.55350781106033,108.8747329711914,187700,0.0,0.0
2022-08-17 00:00:00-04:00,107.83524403755561,108.29184490541572,106.91233275153192,107.86438751220703,173100,0.0,0.0
2022-08-18 00:00:00-04:00,107.77695708825279,107.9712518605092,106.83461187788117,107.86438751220703,197300,0.0,0.0
2022-08-19 00:00:00-04:00,108.00037837913024,108.08781620122724,106.42657170007726,107.01918029785156,253400,0.0,0.0
2022-08-22 00:00:00-04:00,106.0574088475859,106.1934166588472,104.67789681229583,104.84304809570312,178300,0.0,0.0
2022-08-23 00:00:00-04:00,104.80419418538122,105.34823287615794,102.98751513108857,103.84242248535156,178000,0.0,0.0
2022-08-24 00:00:00-04:00,104.30874588649061,104.9887850215165,103.67727674004047,104.38645935058594,183000,0.0,0.0
2022-08-25 00:00:00-04:00,104.47389947427929,105.86312866210938,104.47389947427929,105.86312866210938,132900,0.0,0.0
2022-08-26 00:00:00-04:00,106.4265871765713,106.4265871765713,101.19997336807596,101.43313598632812,152000,0.0,0.0
2022-08-29 00:00:00-04:00,101.00568470995775,101.49142907623677,99.85932770906444,101.03482818603516,146800,0.0,0.0
2022-08-30 00:00:00-04:00,101.46226923385957,101.6857074556587,99.79130769749369,101.08338928222656,148900,0.0,0.0
2022-08-31 00:00:00-04:00,101.4039906671931,101.7731611270912,99.82046671028158,99.87875366210938,180300,0.0,0.0
2022-09-01 00:00:00-04:00,99.44158657615682,99.93704790169005,98.44095437437831,99.69417572021484,212200,0.0,0.0
2022-09-02 00:00:00-04:00,100.39364079788524,101.20969517710823,97.84834509430205,98.53810119628906,206000,0.0,0.0
2022-09-06 00:00:00-04:00,98.37295198868806,98.97527026450888,96.96428886711976,97.46946716308594,159300,0.0,0.0
2022-09-07 00:00:00-04:00,97.77060946228816,100.67535822227032,97.75118295203718,100.29647827148438,164200,0.0,0.0
2022-09-08 00:00:00-04:00,99.34443952003454,102.025743075991,99.2181412416454,101.89945220947266,137900,0.0,0.0
2022-09-09 00:00:00-04:00,102.66691631764351,103.77441273703431,101.69542771032738,103.37610626220703,197100,0.0,0.0
2022-09-12 00:00:00-04:00,104.12416388875646,105.1830830621238,103.69670646955522,104.05615997314453,154500,0.0,0.0
2022-09-13 00:00:00-04:00,102.16174114979087,102.73491584598598,101.01538434553109,101.05423736572266,271700,0.0,0.0
2022-09-14 00:00:00-04:00,100.8502387857127,101.33598313191014,99.52901357110605,100.62680053710938,250700,0.0,0.0
2022-09-15 00:00:00-04:00,100.30620731763389,102.39490948507253,100.27706384281134,102.20060729980469,423000,0.0,0.0
2022-09-16 00:00:00-04:00,101.35541068808473,101.35541068808473,98.50894870174065,99.71359252929688,579400,0.0,0.0
2022-09-19 00:00:00-04:00,98.94612310922372,101.56914705951068,98.93640614685118,101.54971313476562,194400,0.0,0.0
2022-09-20 00:00:00-04:00,100.50048753941586,100.50048753941586,97.81918447778406,98.29521179199219,157500,0.0,0.0
2022-09-21 00:00:00-04:00,98.88784410540232,99.36387153372146,96.7894247765428,96.82828521728516,173500,0.0,0.0
2022-09-22 00:00:00-04:00,96.31339451629131,96.31339451629131,94.49670787732701,95.32247924804688,199200,0.0,0.0
2022-09-23 00:00:00-04:00,94.16639406579235,95.50704571921166,94.16639406579235,95.28360748291016,274900,0.0,0.0
2022-09-26 00:00:00-04:00,94.72015901189593,95.64307041700687,93.68066628126589,94.63272857666016,364000,0.0,0.0
2022-09-27 00:00:00-04:00,95.1961709040066,95.98308175194913,92.51486756188235,93.32119750976562,238600,0.0,0.0
2022-09-28 00:00:00-04:00,93.99152515125796,95.69163025735305,93.31148607356793,95.43904113769531,237000,0.0,0.0
2022-09-29 00:00:00-04:00,94.448130161382,94.48699059780314,93.5252114730881,94.01095581054688,206400,0.0,0.0
2022-09-30 00:00:00-04:00,93.37949074175435,94.97273151834811,92.16512994179752,92.32056427001953,471500,0.0,0.0
2022-10-03 00:00:00-04:00,93.70978790225621,95.22530772115896,92.93260148235186,94.66184997558594,274200,0.0,0.0
2022-10-04 00:00:00-04:00,96.26481788425971,96.98372490480172,95.7013600352317,96.40083312988281,262900,0.0,0.0
2022-10-05 00:00:00-04:00,95.29332235631225,96.6436984587531,94.26354671334018,95.3807601928711,201300,0.0,0.0
2022-10-06 00:00:00-04:00,94.8755870155402,95.40018437459374,93.57378834431347,94.95330047607422,202100,0.0,0.0
2022-10-07 00:00:00-04:00,94.16640301353934,94.16640301353934,90.93134375973084,91.3005142211914,119000,0.0,0.0
2022-10-10 00:00:00-04:00,91.69881646610763,92.74802602569372,91.23250604753856,91.67938995361328,177300,0.0,0.0
2022-10-11 00:00:00-04:00,91.12563931738849,92.92289185689488,90.63989498715054,92.03883361816406,369800,0.0,0.0
2022-10-12 00:00:00-04:00,92.05826193443838,92.05826193443838,90.61073858195626,90.70789337158203,147400,0.0,0.0
2022-10-13 00:00:00-04:00,88.47348180010476,92.32057643173498,87.65743479273068,91.86397552490234,237000,0.0,0.0
2022-10-14 00:00:00-04:00,92.680016689808,93.18518751566972,91.42679546896231,92.369140625,319300,0.0,0.0
2022-10-17 00:00:00-04:00,93.28234217552959,94.59385785653218,93.28234217552959,94.54528045654297,344900,0.0,0.0
2022-10-18 00:00:00-04:00,96.42025837888582,97.12944842717792,95.30304483469078,96.44940185546875,281300,0.0,0.0
2022-10-19 00:00:00-04:00,95.89565649894226,96.3814008885095,94.80758639803798,95.409912109375,359500,0.0,0.0
2022-10-20 00:00:00-04:00,95.28361947304064,95.88593776135997,92.70917277360275,93.33092498779297,185600,0.0,0.0
2022-10-21 00:00:00-04:00,92.8354537384103,95.12816756304778,91.83482160708982,94.73957061767578,176400,0.0,0.0
2022-10-24 00:00:00-04:00,95.10873124312313,95.98307242707695,94.4966887084207,95.09901428222656,158500,0.0,0.0
2022-10-25 00:00:00-04:00,94.08473830554523,96.97155011982244,93.59710102392906,96.75698852539062,292500,0.38,0.0
2022-10-26 00:00:00-04:00,97.38116437022647,98.55149831920647,96.51317059779574,96.63995361328125,271900,0.0,0.0
2022-10-27 00:00:00-04:00,96.65946327151254,98.15163217376416,96.42539945801833,96.63995361328125,216700,0.0,0.0
2022-10-28 00:00:00-04:00,99.42924146767989,101.54559298281465,96.76674600397702,98.6295166015625,445300,0.0,0.0
2022-10-31 00:00:00-04:00,97.48845644048096,98.11263164247302,96.64971961766251,96.698486328125,372900,0.0,0.0
2022-11-01 00:00:00-04:00,97.13734336958079,97.13734336958079,94.48459541186101,94.81619262695312,301300,0.0,0.0
2022-11-02 00:00:00-04:00,94.78694809358534,95.33309953082768,92.2317257650846,92.41703033447266,268400,0.0,0.0
2022-11-03 00:00:00-04:00,91.94887964874337,92.67058070301846,90.26165891259653,92.36824798583984,278300,0.0,0.0
2022-11-04 00:00:00-04:00,94.05548151699875,96.33762042965624,93.85067475104906,96.32786560058594,209100,0.0,0.0
2022-11-07 00:00:00-05:00,96.73748808513194,98.03459762308559,95.55740673483317,98.00534057617188,180700,0.0,0.0
2022-11-08 00:00:00-05:00,98.50272723298544,99.24393795696163,97.65423571577239,97.8687973022461,153100,0.0,0.0
2022-11-09 00:00:00-05:00,97.7517830749261,98.3857056554023,96.11332133794969,96.66922760009766,165300,0.0,0.0
2022-11-10 00:00:00-05:00,100.28748775829739,100.69710129983766,98.5417453513467,99.79985046386719,266000,0.0,0.0
2022-11-11 00:00:00-05:00,100.2972377623237,102.48185825568335,98.95136147327118,101.67237854003906,292600,0.0,0.0
2022-11-14 00:00:00-05:00,101.04818919140568,102.66714095458127,101.04818919140568,101.81865692138672,238400,0.0,0.0
2022-11-15 00:00:00-05:00,103.21330621428406,104.36413046755662,101.7016277030284,102.10149383544922,272500,0.0,0.0
2022-11-16 00:00:00-05:00,102.26729919618415,103.27183088339511,102.11125168244985,102.32581329345703,139300,0.0,0.0
2022-11-17 00:00:00-05:00,101.1457345899273,102.47210872926864,101.1457345899273,102.02348327636719,162700,0.0,0.0
2022-11-18 00:00:00-05:00,103.48639026348893,104.28611515224972,102.02347833716397,103.41812133789062,213200,0.0,0.0
2022-11-21 00:00:00-05:00,103.47663751464346,104.06180080878913,102.33556797494614,102.54037475585938,193300,0.0,0.0
2022-11-22 00:00:00-05:00,102.63790143094683,104.02279708012807,102.63790143094683,103.37911224365234,284000,0.0,0.0
2022-11-23 00:00:00-05:00,103.36936320328242,104.1398311079335,102.96950444611858,103.56442260742188,202100,0.0,0.0
2022-11-25 00:00:00-05:00,103.91550353040702,103.91550353040702,102.94997639410053,103.29132843017578,114700,0.0,0.0
2022-11-28 00:00:00-05:00,102.44283395613587,102.8817045030489,100.68733688697594,100.94091033935547,208500,0.0,0.0
2022-11-29 00:00:00-05:00,100.4532824933491,101.52608305124366,100.38501356986731,100.755615234375,181400,0.0,0.0
2022-11-30 00:00:00-05:00,100.34599057192206,103.55464450145388,98.99035964106336,103.51563262939453,297900,0.0,0.0
2022-12-01 00:00:00-05:00,104.13982879131224,105.11510346804789,103.87650790252593,104.4421615600586,156600,0.0,0.0
2022-12-02 00:00:00-05:00,103.63268313659964,105.86606290782451,103.47663562593972,105.37842559814453,167400,0.0,0.0
2022-12-05 00:00:00-05:00,104.21783032347223,104.286099238653,103.06700615274373,104.06178283691406,153800,0.0,0.0
2022-12-06 00:00:00-05:00,103.91551476892162,104.4324091321323,102.76469040826663,104.35438537597656,247800,0.0,0.0
2022-12-07 00:00:00-05:00,104.0910602658664,105.48570322721312,103.57415848292639,103.67169189453125,152800,0.0,0.0
2022-12-08 00:00:00-05:00,103.81798096556507,105.27114551570692,103.81798096556507,105.26139068603516,190800,0.0,0.0
2022-12-09 00:00:00-05:00,105.16386696238837,106.2854342944891,104.98831722831386,105.38817596435547,316700,0.0,0.0
2022-12-12 00:00:00-05:00,105.77829366498212,106.09038127310997,104.83227601013212,105.4076919555664,209100,0.0,0.0
2022-12-13 00:00:00-05:00,107.65080603927066,108.36275976042228,104.92004166507296,105.53446197509766,328400,0.0,0.0
2022-12-14 00:00:00-05:00,105.75878773122237,107.55328955475699,104.57870627190239,105.56372833251953,302500,0.0,0.0
2022-12-15 00:00:00-05:00,105.03707866587244,105.86606808547613,104.58845321191626,104.98831939697266,230000,0.0,0.0
2022-12-16 00:00:00-05:00,104.46166588810587,105.58323319725183,103.75946696617953,104.78350830078125,540600,0.0,0.0
2022-12-19 00:00:00-05:00,104.66647151241814,105.68075800615152,103.16454771058724,103.63268280029297,269800,0.0,0.0
2022-12-20 00:00:00-05:00,103.79846325671411,105.45642689725412,103.6424157682731,104.47140502929688,193300,0.0,0.0
2022-12-21 00:00:00-05:00,105.31015423995657,107.90438079833984,104.9102880836928,107.90438079833984,388500,0.0,0.0
2022-12-22 00:00:00-05:00,106.79257692082803,108.060436974729,104.80301569078225,105.87581634521484,213800,0.0,0.0
2022-12-23 00:00:00-05:00,106.44146360348923,107.47525224361951,105.67099581746135,107.28995513916016,161500,0.0,0.0
2022-12-27 00:00:00-05:00,107.18267511777245,108.27497785764758,106.91934682101372,108.12869262695312,101700,0.0,0.0
2022-12-28 00:00:00-05:00,108.31399440702319,109.1429837674232,106.31468594679085,106.4707260131836,162700,0.0,0.0
2022-12-29 00:00:00-05:00,107.20218285300226,108.42127610990254,106.67553367313076,108.05067443847656,128700,0.0,0.0
2022-12-30 00:00:00-05:00,107.76784355981795,108.00190738097093,106.32443387440595,107.26070404052734,172300,0.0,0.0
2023-01-03 00:00:00-05:00,107.8458705434527,108.32375302950469,106.74380544770912,107.53378295898438,239200,0.0,0.0
2023-01-04 00:00:00-05:00,108.50905441084987,109.43556230737798,107.58253907356702,108.47979736328125,217200,0.0,0.0
2023-01-05 00:00:00-05:00,107.90438386088975,110.23528961821611,106.42196970556171,109.34779357910156,310000,0.0,0.0
2023-01-06 00:00:00-05:00,110.57662775494772,111.57141198035454,109.95245262717476,111.23981475830078,181500,0.0,0.0
2023-01-09 00:00:00-05:00,111.79572267053489,112.81976395806996,110.47910347281449,110.52787017822266,161800,0.0,0.0
2023-01-10 00:00:00-05:00,110.39134052424086,111.51290042431526,110.1670240797729,110.62540435791016,163000,0.0,0.0
2023-01-11 00:00:00-05:00,110.77169108746156,111.60067301105941,110.64490062711108,110.65465545654297,141300,0.0,0.0
2023-01-12 00:00:00-05:00,110.87896910155528,110.97649507115837,109.62086400363823,110.69366455078125,179100,0.0,0.0
2023-01-13 00:00:00-05:00,110.41083543186339,111.48363599262359,110.41083543186339,111.15204620361328,177700,0.0,0.0
2023-01-17 00:00:00-05:00,111.35685038504113,111.69819499542407,110.04023120741864,111.23981475830078,204500,0.0,0.0
2023-01-18 00:00:00-05:00,111.65918869723848,111.76646950025388,109.15273323186517,109.20149993896484,118900,0.0,0.0
2023-01-19 00:00:00-05:00,108.83089694430555,109.6306293174961,107.60205621642669,109.22100830078125,177400,0.0,0.0
2023-01-20 00:00:00-05:00,109.67938137465651,110.48886108398438,108.92842320144285,110.48886108398438,180800,0.0,0.0
2023-01-23 00:00:00-05:00,110.40108139917471,110.91798318579559,109.67938028083822,110.55712890625,165500,0.0,0.0
2023-01-24 00:00:00-05:00,110.23529235727217,110.35232799379355,108.99669682729662,110.04998779296875,172600,0.0,0.0
2023-01-25 00:00:00-05:00,109.07470243873566,109.7281420442356,107.758083280303,109.29901885986328,181200,0.0,0.0
2023-01-26 00:00:00-05:00,109.72815262186917,110.09875430907252,109.05521073437004,110.00122833251953,139000,0.0,0.0
2023-01-27 00:00:00-05:00,109.72814165564401,110.14751000958971,109.09421171027199,109.94270324707031,204300,0.0,0.0
2023-01-30 00:00:00-05:00,108.9479281647212,110.52787574602776,108.7041095069072,110.4498519897461,200200,0.0,0.0
2023-01-31 00:00:00-05:00,111.01550944532644,113.44394111463646,110.51811731617703,112.78075408935547,630900,0.0,0.0
2023-02-01 00:00:00-05:00,111.98818275045524,115.52053241285088,111.92947573660169,114.57139587402344,190900,0.38,0.0
2023-02-02 00:00:00-05:00,114.57138127466314,115.79449367599972,114.07235678992349,114.77687072753906,271600,0.0,0.0
2023-02-03 00:00:00-05:00,114.08214072538685,114.08214072538685,112.731827269601,112.93730926513672,284100,0.0,0.0
2023-02-06 00:00:00-05:00,112.09581247400796,113.0155954666978,110.99990844726562,110.99990844726562,180400,0.0,0.0
2023-02-07 00:00:00-05:00,110.24645778648217,110.4030197574336,108.32861843404118,109.77678680419922,189100,0.0,0.0
2023-02-08 00:00:00-05:00,109.3168985454117,109.74743651284261,108.17206709414592,108.18184661865234,138800,0.0,0.0
2023-02-09 00:00:00-05:00,109.08206023373887,109.4049562356974,106.89023742452264,106.9000244140625,180200,0.0,0.0
2023-02-10 00:00:00-05:00,106.65539601350335,106.87066497971936,105.56927165871183,106.86087799072266,217900,0.0,0.0
2023-02-13 00:00:00-05:00,107.04680442246669,108.1622823932468,106.90002943361962,107.43820190429688,184900,0.0,0.0
2023-02-14 00:00:00-05:00,107.43820360568301,108.80808361585296,107.30121560466603,107.39906311035156,122500,0.0,0.0
2023-02-15 00:00:00-05:00,106.47928907777968,108.0253051794531,106.2346665603739,108.01551818847656,155200,0.0,0.0
2023-02-16 00:00:00-05:00,106.38143267257288,109.1309871495159,105.85304718330413,108.3090591430664,372200,0.0,0.0
2023-02-17 00:00:00-05:00,112.52635733784415,118.67127374410836,111.56743379058679,114.18000793457031,590700,0.0,0.0
2023-02-21 00:00:00-05:00,113.99408350673167,113.99408350673167,110.67700304740676,112.60462951660156,463900,0.0,0.0
2023-02-22 00:00:00-05:00,112.14473824567753,113.50483873327579,111.96860974903169,112.25237274169922,257700,0.0,0.0
2023-02-23 00:00:00-05:00,112.34044007804002,113.07430761440618,110.64765647471593,112.09581756591797,196400,0.0,0.0
2023-02-24 00:00:00-05:00,111.3521634037615,112.56548889623957,110.5595814386297,112.3012924194336,215100,0.0,0.0
2023-02-27 00:00:00-05:00,113.34828540810467,114.72795998141066,113.02538936066618,114.18000793457031,215300,0.0,0.0
2023-02-28 00:00:00-05:00,114.1408565865931,115.56945104812323,114.08214211195074,114.2093505859375,261500,0.0,0.0
2023-03-01 00:00:00-05:00,113.68096753774685,115.08020852453151,113.68096753774685,114.93343353271484,194700,0.0,0.0
2023-03-02 00:00:00-05:00,114.89429070070614,116.44030664786749,114.7083826824528,116.02934265136719,205000,0.0,0.0
2023-03-03 00:00:00-05:00,116.41096318274032,117.6634292602539,115.31505163227258,117.6634292602539,225400,0.0,0.0
2023-03-06 00:00:00-05:00,117.54599069190945,117.60470516314895,114.0723559760678,114.31697845458984,265900,0.0,0.0
2023-03-07 00:00:00-05:00,114.199571405546,114.81601744180146,113.72011337734729,114.16043090820312,247100,0.0,0.0
2023-03-08 00:00:00-05:00,113.90602175985846,114.18977728362199,112.692688813863,112.84925079345703,281700,0.0,0.0
2023-03-09 00:00:00-05:00,113.46569894579096,113.90602392279584,112.0664579540653,112.10559844970703,189700,0.0,0.0
2023-03-10 00:00:00-05:00,112.17408531507543,112.17408531507543,109.864848476113,110.13882446289062,201400,0.0,0.0
2023-03-13 00:00:00-04:00,109.05270447113658,110.67700140915343,109.05270447113658,109.5615234375,245400,0.0,0.0
2023-03-14 00:00:00-04:00,111.42065752794538,112.7807580129058,111.04882655503299,112.60462951660156,261500,0.0,0.0
2023-03-15 00:00:00-04:00,111.01947579810464,111.30323879724627,107.80024276474992,108.98421478271484,256200,0.0,0.0
2023-03-16 00:00:00-04:00,107.84917154248042,110.84334862432897,107.58497505567823,110.25625610351562,209200,0.0,0.0
2023-03-17 00:00:00-04:00,110.49109039168059,110.49109039168059,107.58497386085018,108.37755584716797,393800,0.0,0.0
2023-03-20 00:00:00-04:00,109.39518705084062,111.0292635900135,109.39518705084062,110.3541030883789,146400,0.0,0.0
2023-03-21 00:00:00-04:00,111.6750680470849,111.7631360345813,110.0507784267172,110.58894348144531,141200,0.0,0.0
2023-03-22 00:00:00-04:00,110.37366744445923,111.76312135785138,109.72786050524878,109.83549499511719,176700,0.0,0.0
2023-03-23 00:00:00-04:00,109.73766081095724,111.00969339922412,108.42648025949426,109.31690979003906,156900,0.0,0.0
2023-03-24 00:00:00-04:00,108.63195620067049,110.55958268953378,107.65346620350424,110.5400161743164,148800,0.0,0.0
2023-03-27 00:00:00-04:00,111.01947842578275,112.36979198597774,111.01947842578275,111.5282974243164,170100,0.0,0.0
2023-03-28 00:00:00-04:00,111.32279368044414,112.64376103003902,110.70634772517593,112.54590606689453,189800,0.0,0.0
2023-03-29 00:00:00-04:00,113.20151127067999,113.4461337723694,112.68291276154427,113.37763977050781,138700,0.0,0.0
2023-03-30 00:00:00-04:00,113.77881321274664,114.25827121069774,112.57527472284893,113.4559097290039,148000,0.0,0.0
2023-03-31 00:00:00-04:00,114.01364409898393,115.72600148759955,114.01364409898393,115.6477279663086,206300,0.0,0.0
2023-04-03 00:00:00-04:00,115.39332536489201,116.25439387266012,115.11934936084243,116.09783935546875,151100,0.0,0.0
2023-04-04 00:00:00-04:00,115.95106450381833,115.95106450381833,114.2680605165745,115.138916015625,183100,0.0,0.0
2023-04-05 00:00:00-04:00,115.20741233178677,116.63600685854641,114.70838779890055,116.51859283447266,249700,0.0,0.0
2023-04-06 00:00:00-04:00,116.77299181083052,116.77299181083052,115.3933248070262,116.49901580810547,159300,0.0,0.0
2023-04-10 00:00:00-04:00,115.83364820843825,116.65558372370869,115.43247117412322,116.53816223144531,174600,0.0,0.0
2023-04-11 00:00:00-04:00,116.63601008786671,117.409018117329,116.27397354990035,116.48924255371094,121800,0.0,0.0
2023-04-12 00:00:00-04:00,116.76321254687886,117.09589556084956,115.64773455312766,115.84342956542969,134300,0.0,0.0
2023-04-13 00:00:00-04:00,115.8042883789692,117.41879834932972,115.3541838811311,117.20352935791016,110700,0.0,0.0
2023-04-14 00:00:00-04:00,116.61643507221491,117.47750355941214,115.76514610972423,116.63600158691406,233600,0.0,0.0
2023-04-17 00:00:00-04:00,116.92955014017048,117.23287963867188,115.9804136851727,117.23287963867188,122400,0.0,0.0
2023-04-18 00:00:00-04:00,117.15460898417136,117.15460898417136,115.51074551363084,116.03912353515625,261700,0.0,0.0
2023-04-19 00:00:00-04:00,115.8238721357144,116.86106921978963,115.52053513797998,116.15655517578125,252900,0.0,0.0
2023-04-20 00:00:00-04:00,116.44030439380829,117.22309934223397,115.97062593169571,116.46965789794922,296800,0.0,0.0
2023-04-21 00:00:00-04:00,116.7534299567376,118.46578750741529,116.24461842640514,117.99610900878906,361500,0.0,0.0
2023-04-24 00:00:00-04:00,118.26030807956143,118.80826011885198,117.16439653569368,117.8102035522461,229600,0.0,0.0
2023-04-25 00:00:00-04:00,116.86106627113051,117.36987780936104,115.34440371658748,115.53031921386719,167500,0.0,0.0
2023-04-26 00:00:00-04:00,114.4931075181641,115.05084647341042,113.12322013843884,113.26020812988281,247200,0.0,0.0
2023-04-27 00:00:00-04:00,113.26020723587565,114.072355653944,112.16429584768879,114.06256866455078,361900,0.0,0.0
2023-04-28 00:00:00-04:00,114.00386604924881,116.99804290432304,114.00386604924881,115.96084594726562,586700,0.0,0.0
2023-05-01 00:00:00-04:00,116.84149293285557,119.86502340939604,116.84149293285557,119.02352142333984,283100,0.0,0.0
2023-05-02 00:00:00-04:00,118.14287552500228,118.27986352199954,113.24064620684463,117.88847351074219,359200,0.0,0.0
2023-05-03 00:00:00-04:00,118.25165760847847,118.78171490676155,117.53509658795517,117.69215393066406,294300,0.38,0.0
2023-05-04 00:00:00-04:00,117.73142656290354,117.93755872305542,116.20996527604514,116.61241912841797,192500,0.0,0.0
2023-05-05 00:00:00-04:00,116.79891023415145,119.63569303395245,116.79891023415145,119.4590072631836,171100,0.0,0.0
2023-05-08 00:00:00-04:00,119.61605155668623,120.08720856804952,118.43815153937234,119.26268005371094,200400,0.0,0.0
2023-05-09 00:00:00-04:00,118.64429522057912,118.80134507669057,117.48602351224487,118.35963439941406,185600,0.0,0.0
2023-05-10 00:00:00-04:00,118.8602453836766,119.33140995974044,116.31794123325378,117.41732025146484,227200,0.0,0.0
2023-05-11 00:00:00-04:00,117.27989407350391,117.62344766253574,116.76946517930813,117.08357238769531,203900,0.0,0.0
2023-05-12 00:00:00-04:00,117.47620439946992,118.64429405259523,117.15227924523927,118.56576538085938,168400,0.0,0.0
2023-05-15 00:00:00-04:00,118.36944486679788,118.84060941294503,117.82957709333841,118.35963439941406,148300,0.0,0.0
2023-05-16 00:00:00-04:00,118.35962920406743,118.35962920406743,116.03326793322339,116.14124298095703,180800,0.0,0.0
2023-05-17 00:00:00-04:00,116.63204222599711,116.84799233312319,115.29708473549634,116.77928161621094,168600,0.0,0.0
2023-05-18 00:00:00-04:00,115.9940194322432,116.85781993202393,115.61120147944297,116.79891967773438,94000,0.0,0.0
2023-05-19 00:00:00-04:00,117.67251798837268,118.05533589999513,116.41608920264702,116.89706420898438,156900,0.0,0.0
2023-05-22 00:00:00-04:00,116.48479206465859,117.31913854684454,115.71915629303135,115.9547348022461,229600,0.0,0.0
2023-05-23 00:00:00-04:00,115.23818978808656,116.26885052221142,114.7572147788283,115.0222396850586,155400,0.0,0.0
2023-05-24 00:00:00-04:00,115.03206582752112,115.03206582752112,112.91183647116725,113.00018310546875,297800,0.0,0.0
2023-05-25 00:00:00-04:00,112.18545395494543,113.157221903775,111.35110743367132,111.44926452636719,196800,0.0,0.0
2023-05-26 00:00:00-04:00,110.90939246562569,112.38177136503076,110.87012812963945,112.05785369873047,210200,0.0,0.0
2023-05-30 00:00:00-04:00,112.10692956090803,112.60754048832791,110.92902942582099,111.2725830078125,136100,0.0,0.0
2023-05-31 00:00:00-04:00,111.35112083423996,111.46890636408747,109.63334529416476,110.41860961914062,360800,0.0,0.0
2023-06-01 00:00:00-04:00,110.74252803336906,111.4296352118274,109.97689218054215,110.86032104492188,170700,0.0,0.0
2023-06-02 00:00:00-04:00,111.9106143110087,112.63698580448809,111.56706073226212,112.05785369873047,353000,0.0,0.0
2023-06-05 00:00:00-04:00,111.70449030239857,112.12657258386996,110.80142548673189,110.97811126708984,237400,0.0,0.0
2023-06-06 00:00:00-04:00,110.95847597543488,112.54864790024835,110.95847597543488,112.21490478515625,266900,0.0,0.0
2023-06-07 00:00:00-04:00,112.25417515299031,113.56949679355634,111.95969635849296,113.28484344482422,264100,0.0,0.0
2023-06-08 00:00:00-04:00,113.4320610885914,113.85414331354195,112.67624326149225,113.07868957519531,270500,0.0,0.0
2023-06-09 00:00:00-04:00,112.94127355518758,113.44188447126554,112.28361278614582,112.69587707519531,295000,0.0,0.0
2023-06-12 00:00:00-04:00,112.56827265525595,113.46151194068716,112.19527270480974,113.26519775390625,353000,0.0,0.0
2023-06-13 00:00:00-04:00,113.57930920963341,114.24678795421295,112.6468055540605,113.08851623535156,340600,0.0,0.0
2023-06-14 00:00:00-04:00,113.48114700172985,113.8247005704733,112.24434666534736,113.03943634033203,225200,0.0,0.0
2023-06-15 00:00:00-04:00,112.8823871503775,114.25660901346778,112.8333048560538,113.91305541992188,362600,0.0,0.0
2023-06-16 00:00:00-04:00,113.52041889696864,115.05169061329613,113.23575806707835,114.9927978515625,975300,0.0,0.0
2023-06-20 00:00:00-04:00,114.72775359537623,114.79646430660368,113.57929992675781,113.57929992675781,297000,0.0,0.0
2023-06-21 00:00:00-04:00,113.01980117361711,113.13759417892268,111.33147220876805,111.52779388427734,317800,0.0,0.0
2023-06-22 00:00:00-04:00,111.85171029681588,111.95968534491618,110.28117435477432,111.94987487792969,266200,0.0,0.0
2023-06-23 00:00:00-04:00,110.82106057375844,111.63577874871399,110.0063423988029,110.75234985351562,366000,0.0,0.0
2023-06-26 00:00:00-04:00,110.97810720466035,112.26398991588081,110.97810720466035,111.51798248291016,142300,0.0,0.0
2023-06-27 00:00:00-04:00,111.73392545883496,112.7056934087205,111.14497541311361,112.60753631591797,218300,0.0,0.0
2023-06-28 00:00:00-04:00,112.69588087233157,112.69588087233157,110.40879129331206,111.42963409423828,204800,0.0,0.0
2023-06-29 00:00:00-04:00,111.34128815439487,113.23574922764271,110.47749526446913,112.66642761230469,225900,0.0,0.0
2023-06-30 00:00:00-04:00,113.09833284074686,114.13881153734555,112.72532539184819,113.72654724121094,279800,0.0,0.0
2023-07-03 00:00:00-04:00,113.28483828054459,114.86518477299002,113.28483828054459,114.39402770996094,85700,0.0,0.0
2023-07-05 00:00:00-04:00,113.49097172501563,113.49097172501563,110.68363527204593,110.86032104492188,384200,0.0,0.0
2023-07-06 00:00:00-04:00,110.18302145320327,110.89958248249435,109.57443547611915,110.39897155761719,277700,0.0,0.0
2023-07-07 00:00:00-04:00,110.57565663909402,113.20630723406722,110.51675639077017,111.69466400146484,333400,0.0,0.0
2023-07-10 00:00:00-04:00,111.22350117784158,113.17686260297434,110.929029887298,112.36214447021484,248000,0.0,0.0
2023-07-11 00:00:00-04:00,112.20508796771925,113.4320704098084,111.28240226372463,113.38299560546875,226700,0.0,0.0
2023-07-12 00:00:00-04:00,114.43328809873285,115.38542763725938,113.63819841282893,114.71794891357422,199400,0.0,0.0
2023-07-13 00:00:00-04:00,114.69831222740211,115.20874109502009,114.41365141448175,114.8553695678711,190200,0.0,0.0
2023-07-14 00:00:00-04:00,115.52284962915222,116.65166744903586,114.55107417374965,116.17069244384766,271600,0.0,0.0
2023-07-17 00:00:00-04:00,116.21977744333584,117.33878482207749,115.00261296782688,117.0639419555664,234200,0.0,0.0
2023-07-18 00:00:00-04:00,116.81854209297525,118.15349953936672,116.51424536621278,116.88725280761719,189100,0.0,0.0
2023-07-19 00:00:00-04:00,116.56333073191328,117.21118104897205,116.13143052054077,116.91670227050781,247200,0.0,0.0
2023-07-20 00:00:00-04:00,117.57437061931748,118.00627085847698,116.67131329099026,117.13265991210938,175800,0.0,0.0
2023-07-21 00:00:00-04:00,117.44675876945266,117.83939464173179,116.68112293740685,117.63325500488281,184300,0.0,0.0
2023-07-24 00:00:00-04:00,117.80993713596214,118.27128370997957,116.52406199562894,117.52528381347656,163400,0.0,0.0
2023-07-25 00:00:00-04:00,117.476210996403,118.88969721139811,117.10321101807118,118.34000396728516,250700,0.0,0.0
2023-07-26 00:00:00-04:00,118.34985607308383,118.58623849459941,117.03003856449325,118.14301300048828,306900,0.41,0.0
2023-07-27 00:00:00-04:00,118.2513460117768,118.96050072783213,116.9512315371624,117.34520721435547,407800,0.0,0.0
2023-07-28 00:00:00-04:00,120.64475358705498,125.07696356835932,120.04394229954343,121.91532135009766,513000,0.0,0.0
2023-07-31 00:00:00-04:00,121.65922899664189,122.06305615640262,119.00975762578362,119.63026428222656,746500,0.0,0.0
2023-08-01 00:00:00-04:00,119.41358520927224,120.65460611911824,118.93096888884513,120.59551239013672,365300,0.0,0.0
2023-08-02 00:00:00-04:00,119.61056990014845,120.48716189674361,118.17256496736918,120.39851379394531,329200,0.0,0.0
2023-08-03 00:00:00-04:00,119.68936222304521,120.88114082631289,118.90141830822384,118.99005889892578,195900,0.0,0.0
2023-08-04 00:00:00-04:00,118.80292880189697,120.29017607268158,118.66503842598928,118.82262420654297,116500,0.0,0.0
2023-08-07 00:00:00-04:00,118.91126810573093,119.82725843582493,118.69458108998327,119.46282958984375,140300,0.0,0.0
2023-08-08 00:00:00-04:00,118.27105347378337,119.57116799836159,117.90662464334399,119.2953872680664,270100,0.0,0.0
2023-08-09 00:00:00-04:00,119.29538666044495,121.53118686777412,118.70441936772382,119.99468994140625,287500,0.0,0.0
2023-08-10 00:00:00-04:00,119.96514930096563,121.70848186440932,119.96514930096563,120.388671875,216000,0.0,0.0
2023-08-11 00:00:00-04:00,119.67951193116477,121.36375069533648,119.67951193116477,120.762939453125,226500,0.0,0.0
2023-08-14 00:00:00-04:00,120.19168505519164,121.13722229003906,119.74846705945322,121.13722229003906,145700,0.0,0.0
2023-08-15 00:00:00-04:00,120.7826366360751,121.07812028935527,120.14243457807048,120.25077056884766,249000,0.0,0.0
2023-08-16 00:00:00-04:00,119.89620845848317,121.30466660320468,119.65981851478783,119.70906829833984,291100,0.0,0.0
2023-08-17 00:00:00-04:00,120.1227352184302,120.8121945916867,119.78786074829033,119.80755615234375,186600,0.0,0.0
2023-08-18 00:00:00-04:00,119.55147817269936,121.56074766061812,119.55147817269936,121.43270874023438,443100,0.0,0.0
2023-08-21 00:00:00-04:00,121.29481465792134,122.58507782562879,121.20616655077505,121.91532135009766,358800,0.0,0.0
2023-08-22 00:00:00-04:00,122.00396283639077,123.81624054567901,120.9106838325083,121.09781646728516,429600,0.0,0.0
2023-08-23 00:00:00-04:00,121.20616606012085,121.69863383382778,120.46746439956047,121.53119659423828,305000,0.0,0.0
2023-08-24 00:00:00-04:00,121.62969008028209,123.5700143338806,120.74324657426476,123.22528839111328,278400,0.0,0.0
2023-08-25 00:00:00-04:00,123.67835108442223,125.75656560150136,123.0972427433097,125.6186752319336,493000,0.0,0.0
2023-08-28 00:00:00-04:00,125.70732622680575,127.62795512957084,125.70732622680575,127.46051788330078,331900,0.0,0.0
2023-08-29 00:00:00-04:00,127.84462418454724,129.97208835964057,127.4506409879065,129.83419799804688,472400,0.0,0.0
2023-08-30 00:00:00-04:00,130.3759061188692,131.25249810459778,129.71600114344866,130.88807678222656,298900,0.0,0.0
2023-08-31 00:00:00-04:00,131.27221943038705,131.71543745765064,130.24789298895732,130.5630645751953,305800,0.0,0.0
2023-09-01 00:00:00-04:00,131.09494026639382,131.77453323665583,130.52367578923537,130.55322265625,252000,0.0,0.0
2023-09-05 00:00:00-04:00,129.69629407214597,129.99177771573278,125.44138070283232,125.6482162475586,325300,0.0,0.0
2023-09-06 00:00:00-04:00,125.8649151442291,126.08159465361133,124.29886370837676,124.50570678710938,291100,0.0,0.0
2023-09-07 00:00:00-04:00,124.38750213384363,125.25424264729504,123.25482483384212,123.47151184082031,328600,0.0,0.0
2023-09-08 00:00:00-04:00,123.61926334777158,124.76178468160838,123.23513908329988,123.42227172851562,238800,0.0,0.0
2023-09-11 00:00:00-04:00,125.07696150990851,126.00280331761621,124.50570461048845,125.09666442871094,333500,0.0,0.0
2023-09-12 00:00:00-04:00,124.21021500686247,125.37243918341215,123.53060711543807,124.62388610839844,258000,0.0,0.0
2023-09-13 00:00:00-04:00,123.88518867479367,124.68298404247041,123.2252836789509,123.48136901855469,279300,0.0,0.0
2023-09-14 00:00:00-04:00,124.11172409736754,125.38229179040027,124.11172409736754,124.85042572021484,217900,0.0,0.0
2023-09-15 00:00:00-04:00,124.58448228174343,125.28378554566477,123.28436779546722,124.03292083740234,589200,0.0,0.0
2023-09-18 00:00:00-04:00,124.45645397713974,124.45645397713974,123.03814441153213,123.74729919433594,175100,0.0,0.0
2023-09-19 00:00:00-04:00,123.79655204787096,123.79655204787096,122.19110228739817,123.42227172851562,218600,0.0,0.0
2023-09-20 00:00:00-04:00,123.94427343429821,124.20035875537468,122.68355726047733,122.75250244140625,206200,0.0,0.0
2023-09-21 00:00:00-04:00,122.45702914619172,122.47672454928626,120.34926783539315,120.37881469726562,335700,0.0,0.0
2023-09-22 00:00:00-04:00,120.48716037267445,121.04857330175713,120.27047336242124,120.8318862915039,341200,0.0,0.0
2023-09-25 00:00:00-04:00,120.15228867269298,122.26005020172887,119.64012548013092,122.1714096069336,258800,0.0,0.0
2023-09-26 00:00:00-04:00,121.66908429375634,122.34869221115255,121.37360814470796,121.73802947998047,547000,0.0,0.0
2023-09-27 00:00:00-04:00,122.17140377584057,122.57522343473762,121.01903101173075,121.65923309326172,362400,0.0,0.0
2023-09-28 00:00:00-04:00,121.99411013583865,123.74729410203551,121.40315034597452,123.5798568725586,219300,0.0,0.0
2023-09-29 00:00:00-04:00,124.58448737054094,124.91936934289888,122.91010005213542,123.15633392333984,330900,0.0,0.0
2023-10-02 00:00:00-04:00,122.65402041708958,123.58971367978923,122.12215432885712,123.16619110107422,244100,0.0,0.0
2023-10-03 00:00:00-04:00,122.15169752451257,123.42226522250525,120.6447474103352,121.01902770996094,236300,0.0,0.0
2023-10-04 00:00:00-04:00,121.68879452704238,122.7820736275,120.48717191108265,122.35855102539062,208200,0.0,0.0
2023-10-05 00:00:00-04:00,122.09260826611496,123.04799693932927,120.95008695070266,121.88577270507812,466700,0.0,0.0
2023-10-06 00:00:00-04:00,121.74788423457618,124.78148753947032,121.53119721073205,124.50570678710938,491700,0.0,0.0
2023-10-09 00:00:00-04:00,123.92458710028268,125.30349833422895,123.79654818760531,125.02771759033203,275700,0.0,0.0
2023-10-10 00:00:00-04:00,125.32318748206251,126.67255178529572,124.60418879486171,124.63373565673828,322000,0.0,0.0
2023-10-11 00:00:00-04:00,125.60882568359375,125.77626291855002,124.74208513105981,125.60882568359375,212900,0.0,0.0
2023-10-12 00:00:00-04:00,125.30348830527898,125.48077698566038,123.17602414070203,123.53060150146484,189300,0.0,0.0
2023-10-13 00:00:00-04:00,124.1018658917555,124.76177083548703,123.5109061284965,124.07231903076172,324900,0.0,0.0
2023-10-16 00:00:00-04:00,125.44137989646963,125.51032507760185,124.26930430276053,124.8011703491211,275200,0.0,0.0
2023-10-17 00:00:00-04:00,124.11173667090924,126.40663090072249,124.11173667090924,125.5595932006836,314400,0.0,0.0
2023-10-18 00:00:00-04:00,124.95877292177799,125.74671683410875,124.37765705376466,124.87012481689453,287300,0.0,0.0
2023-10-19 00:00:00-04:00,124.18067105542181,125.54973081483128,123.50106314806689,123.83594512939453,443900,0.0,0.0
2023-10-20 00:00:00-04:00,124.03292439990166,124.5746419157682,120.09318250839613,120.37881469726562,446500,0.0,0.0
2023-10-23 00:00:00-04:00,119.88634184328839,121.30465126831521,119.38402266951456,119.6696548461914,379000,0.0,0.0
2023-10-24 00:00:00-04:00,120.2901626127803,121.90545613363683,119.8863429897967,121.48193359375,312100,0.0,0.0
2023-10-25 00:00:00-04:00,120.98783390708984,122.32193004982163,120.45419394209233,120.92854309082031,431300,0.41,0.0
2023-10-26 00:00:00-04:00,119.83162224324822,123.9129702724296,119.83162224324822,121.97605895996094,576000,0.0,0.0
2023-10-27 00:00:00-04:00,122.01558593957586,122.38122269807654,118.94221959153327,119.74267578125,364000,0.0,0.0
2023-10-30 00:00:00-04:00,120.4838332587018,120.8791229394024,119.42643769805373,120.73088836669922,283100,0.0,0.0
2023-10-31 00:00:00-04:00,121.0668978964798,121.44241897947953,120.39490764196373,120.82971954345703,422900,0.0,0.0
2023-11-01 00:00:00-04:00,120.67160074903458,121.97605145222434,120.17749051995476,121.48194122314453,360500,0.0,0.0
2023-11-02 00:00:00-04:00,122.26264837035367,122.82593378558079,121.53136727012583,122.12429809570312,384300,0.0,0.0
2023-11-03 00:00:00-04:00,122.96428251310115,124.48614305463377,122.96428251310115,123.87344360351562,278000,0.0,0.0
2023-11-06 00:00:00-05:00,123.79437631027992,124.24896436622109,123.28050497766334,123.71532440185547,173500,0.0,0.0
2023-11-07 00:00:00-05:00,123.15203798549139,123.51767473498641,122.70733424919426,123.0828628540039,205000,0.0,0.0
2023-11-08 00:00:00-05:00,123.40897795368349,124.01179308445136,122.94452063446629,123.64615631103516,175800,0.0,0.0
2023-11-09 00:00:00-05:00,124.20943327907183,124.20943327907183,122.60851340354475,122.92474365234375,118600,0.0,0.0
2023-11-10 00:00:00-05:00,122.77652022014401,124.308265103415,122.43064453217058,124.23908996582031,195600,0.0,0.0
2023-11-13 00:00:00-05:00,123.91297299029823,124.00191675951038,122.90499135621492,123.06310272216797,183100,0.0,0.0
2023-11-14 00:00:00-05:00,124.46637361252297,126.35387845706128,123.83391307203956,126.343994140625,267400,0.0,0.0
2023-11-15 00:00:00-05:00,126.3143475614149,127.28280699604653,125.8498827070265,126.20564270019531,388600,0.0,0.0
2023-11-16 00:00:00-05:00,126.14635167264116,127.1049192498191,125.34588791957243,126.04753112792969,217000,0.0,0.0
2023-11-17 00:00:00-05:00,127.04563379971587,127.55951271717034,126.1068272759975,126.42305755615234,162700,0.0,0.0
2023-11-20 00:00:00-05:00,125.94870979650948,126.14635843605375,124.94072812317013,125.82024383544922,213900,0.0,0.0
2023-11-21 00:00:00-05:00,125.95859364165075,126.78870284557851,125.7016541809678,126.4032974243164,160600,0.0,0.0
2023-11-22 00:00:00-05:00,126.93691476594223,127.67808010915994,125.85975808610391,127.05551147460938,174800,0.0,0.0
2023-11-24 00:00:00-05:00,127.45080302762,127.45080302762,126.59105599136227,127.01598358154297,65900,0.0,0.0
2023-11-27 00:00:00-05:00,126.31433827436793,126.7886874102254,125.35576322655868,125.50399780273438,367500,0.0,0.0
2023-11-28 00:00:00-05:00,125.504004627321,125.51388894347652,124.01178954785065,124.13037872314453,218000,0.0,0.0
2023-11-29 00:00:00-05:00,124.16002759218779,124.91107731093103,123.44850759964413,123.8932113647461,331800,0.0,0.0
2023-11-30 00:00:00-05:00,123.97226939295874,125.63248027761452,123.33980882161605,125.39530944824219,301000,0.0,0.0
2023-12-01 00:00:00-05:00,124.93083848043351,127.02586119361783,124.93083848043351,126.59105682373047,218300,0.0,0.0
2023-12-04 00:00:00-05:00,125.94869726613702,127.36186039483064,125.39529620951916,126.90727233886719,192000,0.0,0.0
2023-12-05 00:00:00-05:00,126.73928570844643,127.17410516368075,124.39720028755862,124.50590515136719,178000,0.0,0.0
2023-12-06 00:00:00-05:00,124.90119267287656,125.80047697767145,124.39719808953521,124.88143157958984,179500,0.0,0.0
2023-12-07 00:00:00-05:00,124.75295250697287,125.61270704722888,124.50589738455122,125.00000762939453,254000,0.0,0.0
2023-12-08 00:00:00-05:00,124.87155298421081,125.99812384127671,124.14027186670873,125.82024383544922,265800,0.0,0.0
2023-12-11 00:00:00-05:00,125.76094531163876,126.17599611997662,124.8517767044628,126.06729125976562,338000,0.0,0.0
2023-12-12 00:00:00-05:00,126.1463510868967,126.5910548453198,125.1877759746455,125.97835540771484,210300,0.0,0.0
2023-12-13 00:00:00-05:00,125.68187706386493,127.47056120426309,125.68187706386493,127.07526397705078,425000,0.0,0.0
2023-12-14 00:00:00-05:00,127.55950271773703,128.47854053591945,125.38541311501618,125.8992919921875,412900,0.0,0.0
2023-12-15 00:00:00-05:00,125.66213330765346,127.06540472998513,124.48614839791895,124.49603271484375,713000,0.0,0.0
2023-12-18 00:00:00-05:00,125.21742212064312,125.71153238433733,124.39719727342491,125.55342102050781,240500,0.0,0.0
2023-12-19 00:00:00-05:00,126.20564229345229,126.62070064382776,124.5454315105232,124.74308013916016,659100,0.0,0.0
2023-12-20 00:00:00-05:00,124.53555470656374,125.44472337408894,123.982153592046,124.09085845947266,346400,0.0,0.0
2023-12-21 00:00:00-05:00,124.75294875759722,124.75294875759722,123.37932292137825,124.42684173583984,421900,0.0,0.0
2023-12-22 00:00:00-05:00,124.91107389434772,125.54353441719309,124.63437335804339,124.78260040283203,312200,0.0,0.0
2023-12-26 00:00:00-05:00,124.6541318886724,125.3755361630872,124.11060760387191,124.34778594970703,274700,0.0,0.0
2023-12-27 00:00:00-05:00,124.63436937582038,124.98024503514964,123.55720513445337,123.80426025390625,283100,0.0,0.0
2023-12-28 00:00:00-05:00,123.50780990540973,124.31815046958467,122.9346401664867,123.72521209716797,343600,0.0,0.0
2023-12-29 00:00:00-05:00,123.71533193650929,123.8833276189881,122.10452762943483,122.16382598876953,313500,0.0,0.0
2024-01-02 00:00:00-05:00,121.16572465711982,122.63817119494288,120.84949437638886,121.43254089355469,313100,0.0,0.0
2024-01-03 00:00:00-05:00,123.67579826718928,125.76094414531796,121.69935724826344,123.8833236694336,531700,0.0,0.0
2024-01-04 00:00:00-05:00,123.70544279171902,124.43672385242652,122.66780824839185,122.75675201416016,353300,0.0,0.0
2024-01-05 00:00:00-05:00,122.32193344846323,122.90498746956777,121.54123834128632,122.73698425292969,423000,0.0,0.0
2024-01-08 00:00:00-05:00,122.60852284211245,123.68568715781811,120.92855092970204,122.88522338867188,352400,0.0,0.0
2024-01-09 00:00:00-05:00,122.25276515945477,123.17181058624556,121.52148405261278,123.16192626953125,250300,0.0,0.0
2024-01-10 00:00:00-05:00,122.99392013349345,123.94261089030212,122.76663364504678,123.71532440185547,279600,0.0,0.0
2024-01-11 00:00:00-05:00,123.90308518645588,125.47435972243426,123.46827328767989,125.34588623046875,323100,0.0,0.0
2024-01-12 00:00:00-05:00,126.38352064693153,126.46258009735882,124.43672503242341,124.94071960449219,231700,0.0,0.0
2024-01-16 00:00:00-05:00,124.39719304252597,125.32612271932483,124.03155628512354,125.31623840332031,257500,0.0,0.0
2024-01-17 00:00:00-05:00,124.45648936589546,125.77081687111075,124.4070753262042,125.1976547241211,336900,0.0,0.0
2024-01-18 00:00:00-05:00,125.82023625809498,128.4785443290313,124.82213142219884,127.6187973022461,444200,0.0,0.0
2024-01-19 00:00:00-05:00,128.18209008005715,129.91147598730586,127.02585880393394,129.25924682617188,418000,0.0,0.0
2024-01-22 00:00:00-05:00,129.35806092328045,130.25734522161773,129.02206956314845,129.6446533203125,266200,0.0,0.0
2024-01-23 00:00:00-05:00,130.24746945845396,130.296883500987,128.79478406646476,130.27711486816406,217800,0.0,0.0
2024-01-24 00:00:00-05:00,130.5636832420236,130.73167891188575,129.00229309506915,129.23947143554688,294400,0.0,0.0
2024-01-25 00:00:00-05:00,130.47474445843625,130.82062764663073,128.84418675191344,129.7039337158203,332300,0.0,0.0
2024-01-26 00:00:00-05:00,130.12886723227166,131.02815149954128,129.85216670065762,130.1486358642578,219900,0.0,0.0
2024-01-29 00:00:00-05:00,129.50630753208833,131.02816056121415,128.952906430588,130.69216918945312,187800,0.0,0.0
2024-01-30 00:00:00-05:00,130.47475945971385,131.52227084170357,130.07947726694195,130.69216918945312,228400,0.0,0.0
2024-01-31 00:00:00-05:00,131.2175488168734,131.6140753923471,128.03550435063644,128.74923706054688,537500,0.41,0.0
2024-02-01 00:00:00-05:00,129.32418547298803,129.9685203411413,128.48157975991825,129.36383056640625,298800,0.0,0.0
2024-02-02 00:00:00-05:00,128.82853516166915,129.57200543236544,127.56958793469315,128.96731567382812,344800,0.0,0.0
2024-02-05 00:00:00-05:00,128.00575671614538,130.3055501698844,126.93515773518477,129.51251220703125,319500,0.0,0.0
2024-02-06 00:00:00-05:00,129.34399233153823,130.2559806822857,128.1742730749081,129.98834228515625,369700,0.0,0.0
2024-02-07 00:00:00-05:00,130.26590766193826,131.267108845258,128.24366006025903,130.6525115966797,393000,0.0,0.0
2024-02-08 00:00:00-05:00,130.49390979357565,133.6660467963085,130.39477436732616,130.9697265625,620700,0.0,0.0
2024-02-09 00:00:00-05:00,130.95981501793833,137.99800653748164,130.3650327307306,137.75018310546875,650900,0.0,0.0
2024-02-12 00:00:00-05:00,137.94843452529844,139.2470268484113,136.31279084943992,136.41192626953125,491300,0.0,0.0
2024-02-13 00:00:00-05:00,135.49994444056586,136.13437183240478,133.80482548099658,134.74655151367188,275900,0.0,0.0
2024-02-14 00:00:00-05:00,135.07367289511177,136.26323742510704,133.99316640210938,135.9757537841797,335000,0.0,0.0
2024-02-15 00:00:00-05:00,135.97576415206808,136.61019155766678,133.39840943442317,133.8643035888672,471400,0.0,0.0
2024-02-16 00:00:00-05:00,134.19142649181865,136.79853382457387,133.8642977479947,136.30288696289062,453900,0.0,0.0
2024-02-20 00:00:00-05:00,135.94601402085385,138.91989504664994,135.75766580240287,138.47381591796875,373000,0.0,0.0
2024-02-21 00:00:00-05:00,137.86913947554837,138.8901708495271,137.77992666639122,138.7811279296875,276300,0.0,0.0
2024-02-22 00:00:00-05:00,139.24703328340902,141.180053056989,138.8505218366026,140.2383270263672,295700,0.0,0.0
2024-02-23 00:00:00-05:00,140.73396219891302,140.81326750687023,139.37589472425526,140.1292724609375,190300,0.0,0.0
2024-02-26 00:00:00-05:00,140.2680761335312,140.8231982549688,139.5741734817342,140.68441772460938,199200,0.0,0.0
2024-02-27 00:00:00-05:00,140.68439280321402,140.9421237065279,138.58285510834838,139.08840942382812,244600,0.0,0.0
2024-02-28 00:00:00-05:00,138.43416809390393,140.01033667439933,138.11696195491015,139.18756103515625,189600,0.0,0.0
2024-02-29 00:00:00-05:00,139.40565497538333,140.396948797008,138.6126168928949,139.2371368408203,250600,0.0,0.0
2024-03-01 00:00:00-05:00,138.6621693304686,139.5642351130347,138.3449480820494,139.06858825683594,151400,0.0,0.0
2024-03-04 00:00:00-05:00,139.46512794883685,140.88267083058346,139.33625491378967,140.7240753173828,260300,0.0,0.0
2024-03-05 00:00:00-05:00,141.03136662496232,141.96318517392672,140.50598214538743,141.27919006347656,190200,0.0,0.0
2024-03-06 00:00:00-05:00,141.68560621173435,142.38943141864434,141.2395270563974,141.82440185546875,184000,0.0,0.0
2024-03-07 00:00:00-05:00,143.2419369981293,143.87636434934632,142.58767953801575,143.390625,250100,0.0,0.0
2024-03-08 00:00:00-05:00,143.45011379645075,143.80698012307482,141.7252573634442,141.84420776367188,185200,0.0,0.0
2024-03-11 00:00:00-04:00,141.54683652531014,142.13171136913695,140.74389095907273,141.49728393554688,226700,0.0,0.0
2024-03-12 00:00:00-04:00,141.5567547257704,141.60632243992973,140.24823967648902,141.17015075683594,242200,0.0,0.0
2024-03-13 00:00:00-04:00,141.75499169716946,141.75499169716946,139.70300658487778,139.93101501464844,336800,0.0,0.0
2024-03-14 00:00:00-04:00,140.12929766345746,140.38702861621618,139.1380038246175,139.70303344726562,235200,0.0,0.0
2024-03-15 00:00:00-04:00,138.82076653015324,141.1701429429702,138.5233905135426,139.7724151611328,599500,0.0,0.0
2024-03-18 00:00:00-04:00,139.70303582826082,140.06982484052455,137.72044811679112,138.04757690429688,299700,0.0,0.0
2024-03-19 00:00:00-04:00,137.67089007869433,139.09835559463502,137.67089007869433,138.29539489746094,253000,0.0,0.0
2024-03-20 00:00:00-04:00,138.41436752395646,138.85053924569604,137.92862808366573,138.75140380859375,220000,0.0,0.0
2024-03-21 00:00:00-04:00,139.08841825193014,140.3671956103983,138.08721704857123,139.91119384765625,255800,0.0,0.0
2024-03-22 00:00:00-04:00,140.77361081986902,141.20978246160044,139.8219773524016,140.35726928710938,276000,0.0,0.0
2024-03-25 00:00:00-04:00,139.9706758510705,142.79586911672604,139.9409382483535,141.71536254882812,316300,0.0,0.0
2024-03-26 00:00:00-04:00,141.58648848098767,143.05359899938549,141.3783101375535,141.95326232910156,314200,0.0,0.0
2024-03-27 00:00:00-04:00,142.41915705286345,143.8862674213768,142.41915705286345,143.40054321289062,218200,0.0,0.0
2024-03-28 00:00:00-04:00,143.55916383297742,144.08454829465626,142.39933686940833,142.6372528076172,247800,0.0,0.0
2024-04-01 00:00:00-04:00,142.53811857132533,142.53811857132533,140.88265985977688,141.05117797851562,204400,0.0,0.0
2024-04-02 00:00:00-04:00,140.60509657020089,140.60509657020089,139.16772371206562,139.4056396484375,202600,0.0,0.0
2024-04-03 00:00:00-04:00,139.4452793146353,139.960756260409,138.65224135020063,139.65345764160156,258700,0.0,0.0
2024-04-04 00:00:00-04:00,140.59518971189533,141.5071781165175,139.7426765101487,140.51588439941406,403600,0.0,0.0
2024-04-05 00:00:00-04:00,140.14911948491763,141.51709461595203,139.72285529394162,140.49606323242188,288300,0.0,0.0
2024-04-08 00:00:00-04:00,140.43658653193245,141.14041176380232,139.16773171684926,139.28668212890625,312500,0.0,0.0
2024-04-09 00:00:00-04:00,139.19745233021874,139.8715398767991,138.1466834827859,139.08840942382812,242600,0.0,0.0
2024-04-10 00:00:00-04:00,137.76999877927764,138.99920845355638,137.2446143108546,138.18634033203125,200700,0.0,0.0
2024-04-11 00:00:00-04:00,138.04755907083242,138.8207669683444,137.24461357156548,137.918701171875,265300,0.0,0.0
2024-04-12 00:00:00-04:00,136.9670646336894,137.74027259948474,134.77631377258373,136.00550842285156,299200,0.0,0.0
2024-04-15 00:00:00-04:00,137.40322972923067,138.59277922513755,136.63002180059405,136.99679565429688,319600,0.0,0.0
2024-04-16 00:00:00-04:00,136.5903543367824,138.17643033118634,136.1641052997771,137.38339233398438,281700,0.0,0.0
2024-04-17 00:00:00-04:00,137.6708850056611,138.26565219809098,137.14550051234048,137.19505310058594,565400,0.0,0.0
2024-04-18 00:00:00-04:00,137.1851320847816,138.22599347635693,137.01661397390805,137.89886474609375,246600,0.0,0.0
2024-04-19 00:00:00-04:00,137.84930054424208,138.7018137377263,137.56183202448253,138.12686157226562,276600,0.0,0.0
2024-04-22 00:00:00-04:00,138.33502731615243,139.92108802823105,138.03763620578138,139.09832763671875,298800,0.0,0.0
2024-04-23 00:00:00-04:00,138.55312824028502,139.93102591361165,138.30530480892452,138.9298095703125,417200,0.0,0.0
2024-04-24 00:00:00-04:00,139.13860773601874,140.08309687938592,138.83040745274005,139.19825744628906,559200,0.41,0.0
2024-04-25 00:00:00-04:00,139.0292386706214,140.4310674806865,138.11457442322126,139.3672637939453,694400,0.0,0.0
2024-04-26 00:00:00-04:00,141.17671738557638,147.6489684748245,141.07729109393654,142.49900817871094,489500,0.0,0.0
2024-04-29 00:00:00-04:00,144.05989608090238,147.16181733326363,143.53297011620526,145.5313262939453,676700,0.0,0.0
2024-04-30 00:00:00-04:00,144.89503861467492,145.25295202466614,143.2247709779419,143.5429229736328,585100,0.0,0.0
2024-05-01 00:00:00-04:00,144.1493863720236,146.35651652986462,143.74175981802546,144.53712463378906,359600,0.0,0.0
2024-05-02 00:00:00-04:00,144.914913867979,145.8792912599076,144.44763759888693,145.07398986816406,356500,0.0,0.0
2024-05-03 00:00:00-04:00,146.25708021006977,146.27696850093866,144.00023706156148,145.9588165283203,303300,0.0,0.0
2024-05-06 00:00:00-04:00,146.9033104690389,148.21566464459445,146.30679825586762,148.17588806152344,260200,0.0,0.0
2024-05-07 00:00:00-04:00,147.46008217334202,149.50813634180696,147.46008217334202,148.85195922851562,392900,0.0,0.0
2024-05-08 00:00:00-04:00,148.851952516239,149.99527896212328,148.61333853025974,149.91574096679688,223500,0.0,0.0
2024-05-09 00:00:00-04:00,150.12453415300365,150.8502975207552,147.76827976285352,148.21566772460938,299100,0.0,0.0
2024-05-10 00:00:00-04:00,148.08642917571808,148.13614232465676,147.23141459307158,147.6291046142578,186300,0.0,0.0
2024-05-13 00:00:00-04:00,147.66885717155736,148.6133462634333,146.00854125481663,147.01268005371094,167500,0.0,0.0
2024-05-14 00:00:00-04:00,147.4401857000379,147.4501222604799,146.61499607371425,147.04249572753906,137600,0.0,0.0
2024-05-15 00:00:00-04:00,147.102167082445,147.47995361006247,145.91906401390577,146.4261016845703,211100,0.0,0.0
2024-05-16 00:00:00-04:00,146.51557301812144,147.042498969268,145.58102052504745,146.68458557128906,235500,0.0,0.0
2024-05-17 00:00:00-04:00,146.99279178758786,147.31092858235036,146.27696503647144,146.81382751464844,169500,0.0,0.0
2024-05-20 00:00:00-04:00,146.73430448574354,147.54955760165925,146.1874902214491,147.31094360351562,163400,0.0,0.0
2024-05-21 00:00:00-04:00,147.08227500823682,147.81797492279415,146.2371970752046,147.72850036621094,280400,0.0,0.0
2024-05-22 00:00:00-04:00,147.21152602409944,147.96711422959115,146.61499864007018,147.92733764648438,283300,0.0,0.0
2024-05-23 00:00:00-04:00,147.7981084397933,148.0864204140624,146.7044799091405,146.86355590820312,171700,0.0,0.0
2024-05-24 00:00:00-04:00,147.61915308465808,147.96712995738272,146.50565136445627,147.23141479492188,162300,0.0,0.0
2024-05-28 00:00:00-04:00,146.76413330685176,146.92320930991465,144.9745813685235,145.8594207763672,318400,0.0,0.0
2024-05-29 00:00:00-04:00,144.8055608458342,145.84947630873282,143.67217081562745,144.00025939941406,229700,0.0,0.0
2024-05-30 00:00:00-04:00,144.28858574012926,146.1278509067867,144.15933458565246,145.292724609375,328100,0.0,0.0
2024-05-31 00:00:00-04:00,145.24299539146205,146.97291267642265,145.07398283832615,146.83372497558594,358900,0.0,0.0
2024-06-03 00:00:00-04:00,147.6390352585539,147.6390352585539,145.43190503298203,147.30101013183594,266200,0.0,0.0
2024-06-04 00:00:00-04:00,146.79394812461462,147.52966321073654,145.84945907277913,147.33082580566406,287900,0.0,0.0
2024-06-05 00:00:00-04:00,146.86355577498975,147.34076860142255,146.2272669496386,147.06239318847656,229200,0.0,0.0
2024-06-06 00:00:00-04:00,147.15185656875352,147.15185656875352,144.55698831854846,145.11375427246094,197600,0.0,0.0
2024-06-07 00:00:00-04:00,144.92485667565106,145.48160747169428,144.60670469487127,144.7061309814453,179100,0.0,0.0
2024-06-10 00:00:00-04:00,143.99030717125453,144.96462108446894,143.15518095992786,144.7458953857422,125800,0.0,0.0
2024-06-11 00:00:00-04:00,144.069842198694,144.8950318322786,143.51309140261802,144.6564178466797,147700,0.0,0.0
2024-06-12 00:00:00-04:00,145.39213888233263,145.4617251495329,143.234721873972,144.98451232910156,221300,0.0,0.0
2024-06-13 00:00:00-04:00,145.04416203536522,145.68045085271436,144.17921095389806,144.98451232910156,232400,0.0,0.0
2024-06-14 00:00:00-04:00,144.2487917043436,144.53711883402036,142.84696297947195,143.9107666015625,141500,0.0,0.0
2024-06-17 00:00:00-04:00,144.03007123818756,145.82957483514926,143.7318227074485,145.4816131591797,303800,0.0,0.0
2024-06-18 00:00:00-04:00,145.63073417824452,146.83372551658982,145.62079761754873,145.8395233154297,219900,0.0,0.0
2024-06-20 00:00:00-04:00,145.8097081220493,146.67465923985355,144.82544241638323,144.96463012695312,199900,0.0,0.0
2024-06-21 00:00:00-04:00,145.02426713243977,146.28690814864567,144.46751633892825,145.99859619140625,444100,0.0,0.0
2024-06-24 00:00:00-04:00,146.3664553693474,147.37059417305838,145.81964110185237,145.86935424804688,182900,0.0,0.0
2024-06-25 00:00:00-04:00,145.93892924098893,145.94888097165233,143.66221295627713,144.02012634277344,194500,0.0,0.0
2024-06-26 00:00:00-04:00,143.4136783501354,143.9505409043724,142.13116408870536,142.87681579589844,192400,0.0,0.0
2024-06-27 00:00:00-04:00,143.03587341308594,143.04582514463127,141.4451589090506,143.03587341308594,377300,0.0,0.0
2024-06-28 00:00:00-04:00,142.9463882562167,143.48326592890723,139.27777978400968,139.9936065673828,435100,0.0,0.0
2024-07-01 00:00:00-04:00,140.56031649992028,140.65972762098727,137.58764636312122,137.7367706298828,306400,0.0,0.0
2024-07-02 00:00:00-04:00,137.6771168664537,139.6854095648267,136.96129006644594,139.5859832763672,259400,0.0,0.0
2024-07-03 00:00:00-04:00,140.063219987868,140.58019424318394,139.75501971288125,140.4012451171875,143300,0.0,0.0
2024-07-05 00:00:00-04:00,140.17258910255097,140.61997710784055,138.91988448335212,140.08309936523438,207000,0.0,0.0
2024-07-08 00:00:00-04:00,140.8287476496575,141.67382566032194,140.67962337498633,140.68955993652344,249300,0.0,0.0
2024-07-09 00:00:00-04:00,140.04332622757835,140.45095278130893,138.93976114938218,139.2280731201172,238400,0.0,0.0
2024-07-10 00:00:00-04:00,139.93396267066512,140.808865480054,139.75501355255665,140.4708251953125,142000,0.0,0.0
2024-07-11 00:00:00-04:00,140.38135020760953,142.46918093443176,139.93396224338247,141.2661895751953,244500,0.0,0.0
2024-07-12 00:00:00-04:00,142.5785575352512,144.64650016944287,142.5785575352512,143.751708984375,263900,0.0,0.0
2024-07-15 00:00:00-04:00,143.92070998156234,144.8453259480649,142.31010721643665,142.59841918945312,319900,0.0,0.0
2024-07-16 00:00:00-04:00,143.01600293382853,144.45759319455206,143.01600293382853,143.7218780517578,178800,0.0,0.0
2024-07-17 00:00:00-04:00,143.50313696887406,144.92485395451703,143.50313696887406,144.02012634277344,242300,0.0,0.0
2024-07-18 00:00:00-04:00,143.77158413178512,146.39627739473178,143.7616475708671,145.43190002441406,434200,0.0,0.0
2024-07-19 00:00:00-04:00,145.74009743474508,145.74009743474508,143.82129446289454,145.0938720703125,251200,0.0,0.0
2024-07-22 00:00:00-04:00,145.14359967477395,146.7044894018996,144.40788450924526,146.33663940429688,235700,0.0,0.0
2024-07-23 00:00:00-04:00,147.01267493335766,147.64896373659573,144.82543312037194,145.1932830810547,234500,0.0,0.0
2024-07-24 00:00:00-04:00,145.22312418531487,145.77987499600405,143.06569203841158,143.30430603027344,250600,0.0,0.0
2024-07-25 00:00:00-04:00,142.4466137172535,143.66334017802635,140.84093471363238,141.11021423339844,558100,0.45,0.0
2024-07-26 00:00:00-04:00,142.7458185274977,150.8839040725973,141.9679134034649,146.26634216308594,562800,0.0,0.0
2024-07-29 00:00:00-04:00,146.18654807363913,147.9518012557539,144.78032917910988,147.4032745361328,390900,0.0,0.0
2024-07-30 00:00:00-04:00,146.98440955393974,147.50300282044066,145.01969618270712,145.35877990722656,411000,0.0,0.0
2024-07-31 00:00:00-04:00,146.10677238813136,148.4504707285892,145.0197017612093,146.58547973632812,280600,0.0,0.0
2024-08-01 00:00:00-04:00,146.48575417142177,149.13860271713426,145.03963404176758,146.63534545898438,335300,0.0,0.0
2024-08-02 00:00:00-04:00,146.1865607027143,146.60543153811187,143.36415499050057,145.2989501953125,213500,0.0,0.0
2024-08-05 00:00:00-04:00,143.04500195071893,143.04500195071893,139.10560747243943,140.30238342285156,448500,0.0,0.0
2024-08-06 00:00:00-04:00,140.9506421425725,145.69785981497913,140.7312314517885,144.5409698486328,476000,0.0,0.0
2024-08-07 00:00:00-04:00,145.61807332642232,146.86471806655007,143.08489791032852,143.2145538330078,353600,0.0,0.0
2024-08-08 00:00:00-04:00,144.07225793334294,145.76769187651146,144.07225793334294,145.16929626464844,268600,0.0,0.0
2024-08-09 00:00:00-04:00,145.01970173177108,145.01970173177108,143.08490654350197,143.56361389160156,263200,0.0,0.0
2024-08-12 00:00:00-04:00,143.58356293459363,143.7929907393466,142.38678696822322,142.90538024902344,221100,0.0,0.0
2024-08-13 00:00:00-04:00,143.12479067928683,144.9099945543652,142.71590275055541,143.98248291015625,212000,0.0,0.0
2024-08-14 00:00:00-04:00,143.74314177678474,144.42130926648593,143.10486022619372,143.5137481689453,115700,0.0,0.0
2024-08-15 00:00:00-04:00,144.61078772865739,146.94450299558522,144.61078772865739,146.61538696289062,277500,0.0,0.0
2024-08-16 00:00:00-04:00,145.7178086429149,146.4458448984164,145.21915075490517,146.326171875,250600,0.0,0.0
2024-08-19 00:00:00-04:00,145.9272513224637,147.33345499792665,145.52831588225743,146.57550048828125,191200,0.0,0.0
2024-08-20 00:00:00-04:00,146.58547636304425,147.91190824245643,146.58547636304425,147.7124481201172,387200,0.0,0.0
2024-08-21 00:00:00-04:00,147.77227873284713,149.16852996911774,147.06419304414976,148.92916870117188,267300,0.0,0.0
2024-08-22 00:00:00-04:00,149.16853288609883,149.99629161604025,148.27093952712292,148.590087890625,200400,0.0,0.0
2024-08-23 00:00:00-04:00,149.25828872832403,150.1259486188488,149.03887803129888,150.03619384765625,221400,0.0,0.0
2024-08-26 00:00:00-04:00,150.27553600322852,152.26019990468,149.7369921722213,149.75694274902344,235500,0.0,0.0
2024-08-27 00:00:00-04:00,149.6073354575319,151.133227391442,149.4377936001898,150.7941436767578,208300,0.0,0.0
2024-08-28 00:00:00-04:00,150.5248764586845,151.56209348205394,150.5248764586845,151.13323974609375,249000,0.0,0.0
2024-08-29 00:00:00-04:00,152.14052586050624,152.49956015138338,150.8041263625091,151.87124633789062,187100,0.0,0.0
2024-08-30 00:00:00-04:00,151.79146048136437,153.0281375417213,151.23296607276166,152.77880859375,178500,0.0,0.0
2024-09-03 00:00:00-04:00,151.7017037750138,151.97098329637666,149.32808735093408,149.6372528076172,362400,0.0,0.0
2024-09-04 00:00:00-04:00,149.19845240971176,150.49495079841,149.19845240971176,150.32540893554688,175800,0.0,0.0
2024-09-05 00:00:00-04:00,150.67447925817638,151.35264672627906,149.54750748684052,150.31544494628906,200600,0.0,0.0
2024-09-06 00:00:00-04:00,149.9763613557829,152.70899702647708,149.9763613557829,151.9709930419922,319100,0.0,0.0
2024-09-09 00:00:00-04:00,152.16047510581276,152.64915009618142,151.03350341028641,151.5022430419922,241500,0.0,0.0
2024-09-10 00:00:00-04:00,151.46235157142956,152.37988031700135,151.03351306529763,151.1033172607422,158100,0.0,0.0
2024-09-11 00:00:00-04:00,150.38525079268496,150.4750207850162,148.23106011554742,150.43511962890625,178000,0.0,0.0
2024-09-12 00:00:00-04:00,150.4849887540154,151.60197764192228,149.56745999354442,151.5521240234375,200400,0.0,0.0
2024-09-13 00:00:00-04:00,151.78149156962914,152.5992825990635,151.492261470345,151.87124633789062,138600,0.0,0.0
2024-09-16 00:00:00-04:00,152.62921458132197,152.7588705145806,151.66183218445363,152.57936096191406,182900,0.0,0.0
2024-09-17 00:00:00-04:00,153.5866296991098,155.15242277397783,151.46234222382526,152.61923217773438,259900,0.0,0.0
2024-09-18 00:00:00-04:00,153.3472690170848,155.07263627515385,152.30009962123864,152.6591339111328,214200,0.0,0.0
2024-09-19 00:00:00-04:00,154.60390786200904,158.38372825071872,154.60390786200904,156.47885131835938,412400,0.0,0.0
2024-09-20 00:00:00-04:00,155.8904363617549,155.8904363617549,154.06534655021557,155.49151611328125,663300,0.0,0.0
2024-09-23 00:00:00-04:00,155.75080963595366,156.48882882047508,154.32465531926172,155.5413818359375,315800,0.0,0.0
2024-09-24 00:00:00-04:00,155.7607751810832,156.65836853663214,155.61118389740747,156.20957946777344,246200,0.0,0.0
2024-09-25 00:00:00-04:00,156.87777486028946,157.44623694025017,155.4516053850471,156.71820068359375,284100,0.0,0.0
2024-09-26 00:00:00-04:00,157.5160583780924,158.6330471936873,157.2766971099658,157.9548797607422,371600,0.0,0.0
2024-09-27 00:00:00-04:00,158.25407181382246,161.11637865217875,157.83520098285544,159.46083068847656,354300,0.0,0.0
2024-09-30 00:00:00-04:00,158.86243164794053,159.98940340400793,158.50339734091747,159.76002502441406,289800,0.0,0.0
2024-10-01 00:00:00-04:00,160.10908102182546,160.10908102182546,158.62309013398428,159.54061889648438,192200,0.0,0.0
2024-10-02 00:00:00-04:00,159.4309042020019,159.6802331516974,157.53601027144867,158.32388305664062,186900,0.0,0.0
2024-10-03 00:00:00-04:00,157.56593495409092,160.02930629497408,156.21955248369235,158.5133819580078,367000,0.0,0.0
2024-10-04 00:00:00-04:00,159.51069006003982,161.0365820029643,158.90232681876836,160.1489715576172,350500,0.0,0.0
2024-10-07 00:00:00-04:00,158.96217139030824,159.21150035071827,157.58587065913858,158.26405334472656,223300,0.0,0.0
2024-10-08 00:00:00-04:00,157.85514229856898,158.59316146287298,156.67831696887936,158.2440948486328,205900,0.0,0.0
2024-10-09 00:00:00-04:00,157.92496457453083,159.62039840768432,157.69557098143002,159.27133178710938,152600,0.0,0.0
2024-10-10 00:00:00-04:00,157.62577532209792,158.9522072471334,157.62577532209792,158.79263305664062,168500,0.0,0.0
2024-10-11 00:00:00-04:00,160.50801550631274,161.48538077936988,159.91960280646023,161.1163787841797,194400,0.0,0.0
2024-10-14 00:00:00-04:00,164.5471496015545,167.3097035833241,163.02125754964115,166.74124145507812,469700,0.0,0.0
2024-10-15 00:00:00-04:00,166.8708837749407,169.2045990501098,166.0431098506034,168.2272186279297,397300,0.0,0.0
2024-10-16 00:00:00-04:00,168.2471783490178,168.74583626660103,165.47464154468156,165.5943145751953,330000,0.0,0.0
2024-10-17 00:00:00-04:00,166.53178529804745,167.86820001373155,166.07302855953967,167.43934631347656,238200,0.0,0.0
2024-10-18 00:00:00-04:00,168.64610780732278,168.64610780732278,167.32964364723057,168.1773681640625,171500,0.0,0.0
2024-10-21 00:00:00-04:00,168.01780020340925,168.0377507811335,165.85362666420463,165.883544921875,217900,0.0,0.0
2024-10-22 00:00:00-04:00,165.27517443013002,165.92342360843475,164.3676134062384,165.36492919921875,228500,0.0,0.0
2024-10-23 00:00:00-04:00,166.06305748263202,167.52911300642305,165.71400606419698,167.1999969482422,318100,0.0,0.0
2024-10-24 00:00:00-04:00,168.32000732421875,168.3300018310547,166.14999389648438,166.5500030517578,547300,0.45,0.0
2024-10-25 00:00:00-04:00,168.9199981689453,169.85000610351562,164.61000061035156,168.91000366210938,518900,0.0,0.0
2024-10-28 00:00:00-04:00,169.89999389648438,171.41000366210938,168.75999450683594,169.10000610351562,350000,0.0,0.0
2024-10-29 00:00:00-04:00,169.02999877929688,169.49000549316406,167.63999938964844,168.6999969482422,338100,0.0,0.0
2024-10-30 00:00:00-04:00,168.35000610351562,170.1999969482422,168.1199951171875,169.02999877929688,290300,0.0,0.0
2024-10-31 00:00:00-04:00,169.08999633789062,170.27999877929688,167.86000061035156,167.91000366210938,329900,0.0,0.0
2024-11-01 00:00:00-04:00,168.10000610351562,170.99000549316406,167.6199951171875,169.41000366210938,316300,0.0,0.0
2024-11-04 00:00:00-05:00,169.6300048828125,170.57000732421875,168.17999267578125,168.25999450683594,191800,0.0,0.0
2024-11-05 00:00:00-05:00,167.74000549316406,170.36000061035156,167.74000549316406,170.30999755859375,206200,0.0,0.0
2024-11-06 00:00:00-05:00,175.14999389648438,175.14999389648438,172.13999938964844,173.16000366210938,264100,0.0,0.0
2024-11-07 00:00:00-05:00,174.1999969482422,175.4600067138672,173.5399932861328,174.7100067138672,412300,0.0,0.0
2024-11-08 00:00:00-05:00,174.6999969482422,177.83999633789062,174.49000549316406,175.75999450683594,309200,0.0,0.0
2024-11-11 00:00:00-05:00,176.32000732421875,178.02999877929688,175.89999389648438,176.14999389648438,189100,0.0,0.0
2024-11-12 00:00:00-05:00,176.64999389648438,177.24000549316406,174.9499969482422,175.6999969482422,179800,0.0,0.0
2024-11-13 00:00:00-05:00,175.5,176.38999938964844,175.0500030517578,175.5,168400,0.0,0.0
2024-11-14 00:00:00-05:00,175.14999389648438,175.7899932861328,173.91000366210938,174.10000610351562,198200,0.0,0.0
2024-11-15 00:00:00-05:00,172.97000122070312,173.75999450683594,166.1699981689453,166.49000549316406,620500,0.0,0.0
2024-11-18 00:00:00-05:00,166.38999938964844,167.82000732421875,164.3300018310547,166.69000244140625,384400,0.0,0.0
2024-11-19 00:00:00-05:00,166.4199981689453,167.6699981689453,166.1999969482422,166.89999389648438,287600,0.0,0.0
2024-11-20 00:00:00-05:00,167.0,168.94000244140625,165.64999389648438,168.72999572753906,221800,0.0,0.0
2024-11-21 00:00:00-05:00,168.69000244140625,170.22999572753906,167.74000549316406,169.8800048828125,205100,0.0,0.0
2024-11-22 00:00:00-05:00,170.17999267578125,172.07000732421875,170.17999267578125,171.50999450683594,241600,0.0,0.0
2024-11-25 00:00:00-05:00,172.0500030517578,174.02000427246094,171.74000549316406,172.5,270100,0.0,0.0
2024-11-26 00:00:00-05:00,172.86000061035156,172.86000061035156,171.16000366210938,172.0399932861328,140300,0.0,0.0
2024-11-27 00:00:00-05:00,172.6699981689453,173.8800048828125,171.52000427246094,171.72999572753906,167200,0.0,0.0
2024-11-29 00:00:00-05:00,172.58999633789062,173.49000549316406,172.08999633789062,172.9600067138672,117300,0.0,0.0
2024-12-02 00:00:00-05:00,172.97999572753906,173.11000061035156,170.83999633789062,172.75999450683594,170900,0.0,0.0
2024-12-03 00:00:00-05:00,173.4499969482422,173.4499969482422,171.08999633789062,172.39999389648438,160100,0.0,0.0
2024-12-04 00:00:00-05:00,171.88999938964844,172.88999938964844,171.02999877929688,172.58999633789062,173400,0.0,0.0
2024-12-05 00:00:00-05:00,172.00999450683594,172.44000244140625,170.52999877929688,171.10000610351562,245000,0.0,0.0
2024-12-06 00:00:00-05:00,171.60000610351562,172.64999389648438,170.85000610351562,171.14999389648438,209200,0.0,0.0
2024-12-09 00:00:00-05:00,171.55999755859375,173.47000122070312,170.22999572753906,170.7899932861328,301700,0.0,0.0
2024-12-10 00:00:00-05:00,170.72000122070312,171.3699951171875,168.19000244140625,170.91000366210938,287000,0.0,0.0
2024-12-11 00:00:00-05:00,171.8800048828125,174.10000610351562,171.75,172.30999755859375,418600,0.0,0.0
2024-12-12 00:00:00-05:00,171.6699981689453,172.60000610351562,170.77999877929688,171.63999938964844,178300,0.0,0.0
2024-12-13 00:00:00-05:00,170.91000366210938,171.0,169.82000732421875,170.1999969482422,153200,0.0,0.0
2024-12-16 00:00:00-05:00,170.13999938964844,170.92999267578125,167.58999633789062,167.6300048828125,236100,0.0,0.0
2024-12-17 00:00:00-05:00,166.89999389648438,166.91000366210938,162.83999633789062,163.08999633789062,511900,0.0,0.0
2024-12-18 00:00:00-05:00,163.69000244140625,164.4199981689453,157.91000366210938,158.2100067138672,468600,0.0,0.0
2024-12-19 00:00:00-05:00,158.50999450683594,161.57000732421875,158.22999572753906,158.8699951171875,404700,0.0,0.0
2024-12-20 00:00:00-05:00,158.72000122070312,159.77999877929688,157.47000122070312,158.17999267578125,730200,0.0,0.0
2024-12-23 00:00:00-05:00,157.1699981689453,158.89999389648438,156.9600067138672,158.52000427246094,194900,0.0,0.0
2024-12-24 00:00:00-05:00,158.77999877929688,159.4199981689453,157.9199981689453,159.35000610351562,100464,0.0,0.0
