Date,Open,High,Low,Close,Volume,Dividends,Stock Splits
2022-01-03 00:00:00-05:00,117.7417699108511,118.28027940431618,114.71263933682688,116.18392944335938,234900,0.0,0.0
2022-01-04 00:00:00-05:00,116.35702650721244,118.20335111744194,115.35693217584434,116.72244262695312,337300,0.0,0.0
2022-01-05 00:00:00-05:00,116.5878188775357,119.37654255454909,116.5878188775357,118.33798217773438,367600,0.0,0.0
2022-01-06 00:00:00-05:00,118.79957476985176,119.24192295849423,117.3282844749525,117.84756469726562,231900,0.0,0.0
2022-01-07 00:00:00-05:00,118.01102655202445,119.03996854306524,117.28980532456666,118.93418884277344,335100,0.0,0.0
2022-01-10 00:00:00-05:00,118.23218928382384,119.13612217799371,117.0109246460048,117.36672973632812,398400,0.0,0.0
2022-01-11 00:00:00-05:00,117.58790633261613,118.26105053877625,116.09738688249904,117.81869506835938,135500,0.0,0.0
2022-01-12 00:00:00-05:00,117.62636538384531,118.28027287695592,115.99160031938939,116.6455078125,206600,0.0,0.0
2022-01-13 00:00:00-05:00,117.00132751464844,117.63600579025834,115.75121497689473,117.00132751464844,193200,0.0,0.0
2022-01-14 00:00:00-05:00,116.6262898505808,116.82823093188502,115.270397637069,116.5301284790039,179000,0.0,0.0
2022-01-18 00:00:00-05:00,115.98199419071385,116.74168145654316,114.27029692651394,115.75120544433594,232500,0.0,0.0
2022-01-19 00:00:00-05:00,116.12624673954012,117.22250252012462,115.87622130321522,116.76091766357422,252600,0.0,0.0
2022-01-20 00:00:00-05:00,116.1839324779775,117.61675661002346,114.25105751467459,114.27029418945312,297700,0.0,0.0
2022-01-21 00:00:00-05:00,114.64532720068591,115.4627097890764,111.38540784775036,111.91429901123047,351800,0.0,0.0
2022-01-24 00:00:00-05:00,111.15460539550102,112.75091180490237,109.65446767997976,112.53935241699219,329300,0.0,0.0
2022-01-25 00:00:00-05:00,110.31800511434675,112.45282121802009,108.76016455140191,111.5777359008789,470000,0.0,0.0
2022-01-26 00:00:00-05:00,111.33733096886382,113.03941728409123,110.01990480375571,110.76997375488281,1542500,0.0,0.0
2022-01-27 00:00:00-05:00,111.33732822660114,113.76063575617066,108.34666349702474,109.2890625,263900,0.0,0.0
2022-01-28 00:00:00-05:00,109.46215768903576,110.68342247487148,108.13510586030733,110.63534545898438,323100,0.0,0.0
2022-01-31 00:00:00-05:00,110.59688885356059,112.83747754118805,109.84681984480058,112.79901885986328,486300,0.0,0.0
2022-02-01 00:00:00-05:00,112.59706511029461,114.36646516996959,111.98162352518393,112.97210693359375,214000,0.0,0.0
2022-02-02 00:00:00-05:00,112.58618462678974,112.89490395553123,111.92051294445771,112.5090103149414,363600,0.38,0.0
2022-02-03 00:00:00-05:00,112.33535342802907,113.24221230138735,110.85928893118009,111.1294174194336,167700,0.0,0.0
2022-02-04 00:00:00-05:00,110.6374119108362,111.93982154514796,109.65337120237525,111.19696807861328,242700,0.0,0.0
2022-02-07 00:00:00-05:00,111.54425800082721,111.93980117818467,110.29973117566989,110.69527435302734,263300,0.0,0.0
2022-02-08 00:00:00-05:00,110.9461323342607,112.33537321622518,110.69529553936142,111.95912170410156,204200,0.0,0.0
2022-02-09 00:00:00-05:00,112.95281359009903,113.51236977117571,112.10382976765145,112.44149780273438,295900,0.0,0.0
2022-02-10 00:00:00-05:00,111.44778765062294,113.1168064556886,109.6533615010634,110.56986999511719,267100,0.0,0.0
2022-02-11 00:00:00-05:00,110.98470923620984,112.33535910619734,108.89120598597648,109.70159149169922,230600,0.0,0.0
2022-02-14 00:00:00-05:00,109.70159885168971,110.47340093216346,108.47637096142155,110.07785034179688,266600,0.0,0.0
2022-02-15 00:00:00-05:00,110.61811474230855,112.03628947247007,109.40252904171994,110.07785034179688,263000,0.0,0.0
2022-02-16 00:00:00-05:00,110.22254325840208,111.02328647702771,109.11308073819713,110.65667724609375,271400,0.0,0.0
2022-02-17 00:00:00-05:00,109.94276997608874,112.16169511205923,109.32533134633938,111.53460693359375,362400,0.0,0.0
2022-02-18 00:00:00-05:00,112.18100090372779,117.23628307832412,110.38656736106135,114.26486206054688,462300,0.0,0.0
2022-02-22 00:00:00-05:00,114.32274818353467,115.94352668004836,113.1843441519304,114.90159606933594,437200,0.0,0.0
2022-02-23 00:00:00-05:00,115.51903646035221,116.06894306385576,113.45447430962304,113.54130554199219,321100,0.0,0.0
2022-02-24 00:00:00-05:00,112.17135835859368,113.20363945154124,110.67600188662409,112.75021362304688,349300,0.0,0.0
2022-02-25 00:00:00-05:00,113.02997495037894,117.31345469342202,112.70195652511408,116.7056655883789,260100,0.0,0.0
2022-02-28 00:00:00-05:00,115.25856169342619,117.7283167242068,115.07525703208054,117.58360290527344,316300,0.0,0.0
2022-03-01 00:00:00-05:00,117.6607785974539,118.60623578727447,114.3516894737572,114.90159606933594,325700,0.0,0.0
2022-03-02 00:00:00-05:00,114.89194103908994,115.82774863405088,113.84036828876054,114.20697021484375,435100,0.0,0.0
2022-03-03 00:00:00-05:00,114.68935555404576,115.52868981246638,113.27118074288414,115.12349700927734,196100,0.0,0.0
2022-03-04 00:00:00-05:00,113.88860875249837,116.14611760907553,113.54129856526345,115.95317077636719,206700,0.0,0.0
2022-03-07 00:00:00-05:00,115.10419470029356,116.10753449007566,112.34501211850537,112.41254425048828,337300,0.0,0.0
2022-03-08 00:00:00-05:00,112.8370420662411,114.12016000172011,106.16098075810405,106.30569458007812,382800,0.0,0.0
2022-03-09 00:00:00-05:00,107.2607780346636,110.34797142767376,107.2607780346636,109.277099609375,224800,0.0,0.0
2022-03-10 00:00:00-05:00,107.88786157322576,109.65335366832427,107.51161012482108,108.30270385742188,223200,0.0,0.0
2022-03-11 00:00:00-05:00,109.3060575309679,109.71125031809136,108.28341865241075,108.34130859375,237100,0.0,0.0
2022-03-14 00:00:00-04:00,108.84296968399359,111.82404758724115,108.79472929522117,110.48303985595703,173800,0.0,0.0
2022-03-15 00:00:00-04:00,111.03294489917319,112.80808666313702,110.06819602062433,112.69231414794922,199500,0.0,0.0
2022-03-16 00:00:00-04:00,113.5702290245646,114.91122925723037,110.32867249310584,112.86595916748047,266800,0.0,0.0
2022-03-17 00:00:00-04:00,113.10715437664373,114.33238955168315,111.20659794323984,114.23591613769531,163300,0.0,0.0
2022-03-18 00:00:00-04:00,113.93684113007664,114.64111105029676,112.17134891511851,113.58953094482422,286800,0.0,0.0
2022-03-21 00:00:00-04:00,113.57989501513207,114.48675400620311,112.5572561419963,114.47711181640625,309100,0.0,0.0
2022-03-22 00:00:00-04:00,115.55763174152868,116.21366134288489,113.22294097452149,113.52201080322266,294100,0.0,0.0
2022-03-23 00:00:00-04:00,113.64741513095844,113.93683536372131,110.01995746882471,110.62774658203125,256800,0.0,0.0
2022-03-24 00:00:00-04:00,110.9461163878804,112.12311114810201,109.98136754972492,111.76615142822266,210100,0.0,0.0
2022-03-25 00:00:00-04:00,112.73091098177747,113.12646157603521,111.9108758634885,113.10716247558594,148000,0.0,0.0
2022-03-28 00:00:00-04:00,113.29046465727251,113.42552891567145,110.95577406443361,112.38359832763672,167300,0.0,0.0
2022-03-29 00:00:00-04:00,113.36764504605513,115.3743171596195,113.36764504605513,115.11383819580078,184700,0.0,0.0
2022-03-30 00:00:00-04:00,115.35502376013456,115.35502376013456,114.07190597796584,114.63146209716797,156600,0.0,0.0
2022-03-31 00:00:00-04:00,114.2262695488852,115.60586074997394,113.32905279068832,113.35799407958984,211200,0.0,0.0
2022-04-01 00:00:00-04:00,113.98509023607878,115.42256411470699,113.15540554790266,114.82441711425781,400800,0.0,0.0
2022-04-04 00:00:00-04:00,114.53498592919249,114.53498592919249,111.13906581740339,114.23591613769531,286300,0.0,0.0
2022-04-05 00:00:00-04:00,113.50272096266201,115.00772704255188,113.44483101773882,113.57990264892578,225300,0.0,0.0
2022-04-06 00:00:00-04:00,113.12646508408508,114.72794452987654,112.24853999767406,114.16838836669922,194300,0.0,0.0
2022-04-07 00:00:00-04:00,113.75356028681077,116.348730141069,112.51867536054245,115.76988220214844,331900,0.0,0.0
2022-04-08 00:00:00-04:00,115.5865459454273,117.92124352574575,115.5865459454273,117.1301498413086,305300,0.0,0.0
2022-04-11 00:00:00-04:00,116.8600285604649,117.98879033797782,114.76652526855469,114.76652526855469,208000,0.0,0.0
2022-04-12 00:00:00-04:00,115.02700509459902,115.95316307892675,112.29676416636607,112.88526153564453,187400,0.0,0.0
2022-04-13 00:00:00-04:00,112.76949479608568,113.84036663034269,112.76949479608568,113.72459411621094,120200,0.0,0.0
2022-04-14 00:00:00-04:00,113.28080449411864,114.51568180404341,112.8370209208925,113.26151275634766,163300,0.0,0.0
2022-04-18 00:00:00-04:00,112.6633635063761,113.39657465413076,109.57617029548683,109.99101257324219,137100,0.0,0.0
2022-04-19 00:00:00-04:00,110.53129072171147,113.49306980600967,109.50865915476277,113.09752655029297,221600,0.0,0.0
2022-04-20 00:00:00-04:00,113.82107578973465,115.528678064067,113.19398754735957,115.28749084472656,141200,0.0,0.0
2022-04-21 00:00:00-04:00,116.01104916745051,116.10752258032313,114.16837533165025,114.74723052978516,178200,0.0,0.0
2022-04-22 00:00:00-04:00,114.41920886138898,114.41920886138898,112.32570568334667,112.5090103149414,179900,0.0,0.0
2022-04-25 00:00:00-04:00,112.39324592982716,112.39324592982716,108.2255310103666,111.33202362060547,379600,0.0,0.0
2022-04-26 00:00:00-04:00,110.70286472806217,111.65143805895752,106.89887520531015,107.03438568115234,295300,0.38,0.0
2022-04-27 00:00:00-04:00,107.38285376112813,109.36711871341065,107.0247146773615,107.5377197265625,231500,0.0,0.0
2022-04-28 00:00:00-04:00,107.6151462267897,108.64115622818377,106.03741289080882,108.50564575195312,289200,0.0,0.0
2022-04-29 00:00:00-04:00,108.9121719167614,112.71616126656559,108.9121719167614,111.14810943603516,640200,0.0,0.0
2022-05-02 00:00:00-04:00,111.71921260254112,113.2195169104692,108.47662728209515,109.75430297851562,457000,0.0,0.0
2022-05-03 00:00:00-04:00,109.3671131331046,111.67080609882824,109.0283369277827,110.18018341064453,225400,0.0,0.0
2022-05-04 00:00:00-04:00,109.72525786376724,113.03559818628545,109.10577923211825,113.00656127929688,346900,0.0,0.0
2022-05-05 00:00:00-04:00,111.78694796757823,112.4548262985309,108.28302370319936,109.1832046508789,179000,0.0,0.0
2022-05-06 00:00:00-04:00,108.10879345428657,108.13783035789473,106.24067634623638,107.66354370117188,331800,0.0,0.0
2022-05-09 00:00:00-04:00,106.47298466456795,107.53771303426016,103.2400812203503,103.578857421875,276700,0.0,0.0
2022-05-10 00:00:00-04:00,104.11123688509477,105.14692853834289,100.60731184118534,101.18807220458984,411800,0.0,0.0
2022-05-11 00:00:00-04:00,101.0428628069812,103.9757084124212,100.19108158016333,100.72344207763672,297800,0.0,0.0
2022-05-12 00:00:00-04:00,100.39434254297358,103.24007729717643,99.93941135331345,103.03680419921875,389300,0.0,0.0
2022-05-13 00:00:00-04:00,103.56917850987446,104.8178171556516,103.33687587814796,104.06282806396484,226900,0.0,0.0
2022-05-16 00:00:00-04:00,103.84987471206016,104.94363994825231,102.94001233032779,104.85652923583984,202500,0.0,0.0
2022-05-17 00:00:00-04:00,106.5988151067139,106.850480596032,104.75006073439316,105.4663314819336,311200,0.0,0.0
2022-05-18 00:00:00-04:00,104.52743205185301,105.40825757125037,100.2491556613249,100.73312377929688,325900,0.0,0.0
2022-05-19 00:00:00-04:00,100.07491501811684,101.24611683904193,98.98114985926115,100.17170715332031,357000,0.0,0.0
2022-05-20 00:00:00-04:00,101.61395273707559,101.92369204766783,94.0737283177563,96.5226058959961,796300,0.0,0.0
2022-05-23 00:00:00-04:00,97.71315567249178,101.23644282217688,96.47419852773663,100.87831115722656,545200,0.0,0.0
2022-05-24 00:00:00-04:00,101.14933157196936,102.23342276025205,99.52319848192883,101.58489990234375,567400,0.0,0.0
2022-05-25 00:00:00-04:00,100.16204494399477,101.89464430772557,99.1941087080584,101.10093688964844,493400,0.0,0.0
2022-05-26 00:00:00-04:00,102.31085373264554,103.52077398674385,101.90432229961264,103.11424255371094,188200,0.0,0.0
2022-05-27 00:00:00-04:00,103.5304576215943,105.43729316422942,103.5304576215943,105.39857482910156,178000,0.0,0.0
2022-05-31 00:00:00-04:00,104.61456573914529,105.92127837539644,102.9400325521846,103.65630340576172,306100,0.0,0.0
2022-06-01 00:00:00-04:00,104.04346749279485,104.45968038387844,102.24310544157446,103.81116485595703,313900,0.0,0.0
2022-06-02 00:00:00-04:00,104.14994005394632,106.5020254601185,103.40463238336682,106.30844116210938,145400,0.0,0.0
2022-06-03 00:00:00-04:00,105.23403335713091,106.24068797272348,104.76942069425444,105.31147003173828,139800,0.0,0.0
2022-06-06 00:00:00-04:00,106.07611162976939,107.25699483079396,104.85651748407807,105.74701690673828,207400,0.0,0.0
2022-06-07 00:00:00-04:00,105.15658655628557,106.80207511701438,104.9242839396012,106.64720916748047,132900,0.0,0.0
2022-06-08 00:00:00-04:00,105.46632124059524,105.88253407741863,103.82083275162834,104.25640106201172,157700,0.0,0.0
2022-06-09 00:00:00-04:00,103.34654630355774,104.24672727782973,102.40765437932691,102.43669128417969,193800,0.0,0.0
2022-06-10 00:00:00-04:00,100.25882955065124,102.49475972438518,99.82325384637697,101.8268814086914,266800,0.0,0.0
2022-06-13 00:00:00-04:00,99.57159191872799,99.92004951479439,97.8099484651774,98.73916625976562,252100,0.0,0.0
2022-06-14 00:00:00-04:00,98.3520005631831,99.00051606257901,95.23524473236205,96.32901000976562,227900,0.0,0.0
2022-06-15 00:00:00-04:00,97.08400867401443,97.99386372592087,95.38043880899747,97.15176391601562,283300,0.0,0.0
2022-06-16 00:00:00-04:00,95.71920767978209,95.71920767978209,91.0150372821958,91.73130798339844,620400,0.0,0.0
2022-06-17 00:00:00-04:00,91.46029666727229,95.30300486521759,91.45062262154339,94.37378692626953,458500,0.0,0.0
2022-06-21 00:00:00-04:00,94.83839333326725,95.53530120293945,93.9769233103088,94.07372283935547,236100,0.0,0.0
2022-06-22 00:00:00-04:00,93.28001073733672,95.67080685803715,93.15417430982778,95.30299377441406,228200,0.0,0.0
2022-06-23 00:00:00-04:00,95.45786908712122,96.13542146174841,94.054357190012,95.75792694091797,152100,0.0,0.0
2022-06-24 00:00:00-04:00,96.84202450103547,99.35865726718576,96.47420400079217,99.32962036132812,327300,0.0,0.0
2022-06-27 00:00:00-04:00,99.32960913070592,100.81055024014354,98.71980463757276,100.2491455078125,185200,0.0,0.0
2022-06-28 00:00:00-04:00,100.8783028545173,101.02349474838618,98.71012802964572,99.40703582763672,280200,0.0,0.0
2022-06-29 00:00:00-04:00,99.19411013638518,100.55889640862841,98.0906560175427,100.0749282836914,220900,0.0,0.0
2022-06-30 00:00:00-04:00,99.04890702629211,100.18139053829404,98.11968921761617,99.90068817138672,205900,0.0,0.0
2022-07-01 00:00:00-04:00,100.02652036392473,101.31387724366627,98.88436277154985,101.1396484375,262300,0.0,0.0
2022-07-05 00:00:00-04:00,100.02651890131425,100.02651890131425,97.73251493589649,99.61998748779297,230200,0.0,0.0
2022-07-06 00:00:00-04:00,100.21043880719826,100.22980166767316,98.25521083098359,99.3489761352539,286400,0.0,0.0
2022-07-07 00:00:00-04:00,99.16507539999627,99.98782719947332,98.58431507107055,99.80391693115234,221200,0.0,0.0
2022-07-08 00:00:00-04:00,99.43607085453449,99.72644723046535,96.79360226344548,96.80328369140625,208100,0.0,0.0
2022-07-11 00:00:00-04:00,96.6097208680465,96.90978614619273,95.31268975558885,96.35806274414062,186900,0.0,0.0
2022-07-12 00:00:00-04:00,96.28061505746588,98.58430055643085,96.0386310073103,97.28726959228516,284300,0.0,0.0
2022-07-13 00:00:00-04:00,96.53228363572835,98.06161726937513,96.3193364831938,97.442138671875,202500,0.0,0.0
2022-07-14 00:00:00-04:00,96.38708692883118,96.70650764174205,95.18684074421463,96.1160659790039,199800,0.0,0.0
2022-07-15 00:00:00-04:00,97.57762807865433,97.57762807865433,96.02893191939236,96.80328369140625,195300,0.0,0.0
2022-07-18 00:00:00-04:00,97.34534777182543,97.71316088605988,94.56736809279695,94.95454406738281,179900,0.0,0.0
2022-07-19 00:00:00-04:00,95.3901182964889,97.84866981889978,95.3901182964889,97.79059600830078,635400,0.0,0.0
2022-07-20 00:00:00-04:00,97.44214672795364,99.19411647379911,97.43247268186946,98.5552749633789,458900,0.0,0.0
2022-07-21 00:00:00-04:00,98.6423811796512,100.27818832760123,98.32296046294894,100.16204071044922,138900,0.0,0.0
2022-07-22 00:00:00-04:00,100.28787204269864,100.64601110153538,99.0489148663958,100.27819061279297,214600,0.0,0.0
2022-07-25 00:00:00-04:00,100.39435209935876,101.15902264639725,99.61032607602652,100.58793640136719,267400,0.0,0.0
2022-07-26 00:00:00-04:00,100.17020162451607,100.91824467106436,98.97526724828157,100.86967468261719,262200,0.38,0.0
2022-07-27 00:00:00-04:00,101.26796963540217,103.50239638118107,100.68507795750718,103.0069351196289,229200,0.0,0.0
2022-07-28 00:00:00-04:00,103.05550738049563,104.74589538574219,102.15202273061276,104.74589538574219,249800,0.0,0.0
2022-07-29 00:00:00-04:00,104.11444748344815,106.36830108534534,103.35668744489485,104.68762969970703,424400,0.0,0.0
2022-08-01 00:00:00-04:00,103.26925156103125,105.55224851893246,102.59892198761993,105.11507415771484,277000,0.0,0.0
2022-08-02 00:00:00-04:00,104.7847590047528,104.9596272459163,102.81263836999591,103.55096435546875,209700,0.0,0.0
2022-08-03 00:00:00-04:00,104.26987818393255,105.71739419156404,103.4052538816942,104.57103729248047,260700,0.0,0.0
2022-08-04 00:00:00-04:00,104.14358424401739,104.16301816839783,102.84179296160565,103.40525817871094,292600,0.0,0.0
2022-08-05 00:00:00-04:00,102.65720574797297,103.62869441577672,102.09374054179791,102.63777923583984,174600,0.0,0.0
2022-08-08 00:00:00-04:00,103.10409705994307,104.92078366764714,102.98752315502082,104.21159362792969,219300,0.0,0.0
2022-08-09 00:00:00-04:00,104.68762844593176,104.92078366764714,103.45383359845157,104.21159362792969,249200,0.0,0.0
2022-08-10 00:00:00-04:00,106.11571481505423,107.58265742729695,104.96935784336637,106.64031219482422,152900,0.0,0.0
2022-08-11 00:00:00-04:00,107.48550093623498,108.11697002520668,106.4265818920995,106.5042953491211,171100,0.0,0.0
2022-08-12 00:00:00-04:00,107.36893275969733,107.98097541220875,106.99976970513382,107.91297149658203,201300,0.0,0.0
2022-08-15 00:00:00-04:00,107.5243650053825,109.22447015753816,107.5243650053825,108.71929931640625,146500,0.0,0.0
2022-08-16 00:00:00-04:00,107.99069728662452,109.059333471593,107.55352288467974,108.87474822998047,187700,0.0,0.0
2022-08-17 00:00:00-04:00,107.83524403755561,108.29184490541572,106.91233275153192,107.86438751220703,173100,0.0,0.0
2022-08-18 00:00:00-04:00,107.77695708825279,107.9712518605092,106.83461187788117,107.86438751220703,197300,0.0,0.0
2022-08-19 00:00:00-04:00,108.00039377781847,108.08783161238236,106.42658687437222,107.01919555664062,253400,0.0,0.0
2022-08-22 00:00:00-04:00,106.05742428311224,106.19343211416802,104.67791204704888,104.84306335449219,178300,0.0,0.0
2022-08-23 00:00:00-04:00,104.80420188543796,105.34824061618568,102.98752269767229,103.8424301147461,178000,0.0,0.0
2022-08-24 00:00:00-04:00,104.30874588649061,104.9887850215165,103.67727674004047,104.38645935058594,183000,0.0,0.0
2022-08-25 00:00:00-04:00,104.4738844157295,105.86311340332031,104.4738844157295,105.86311340332031,132900,0.0,0.0
2022-08-26 00:00:00-04:00,106.42657917158935,106.42657917158935,101.19996575621899,101.4331283569336,152000,0.0,0.0
2022-08-29 00:00:00-04:00,101.00566945557007,101.49141374848953,99.85931262780538,101.0348129272461,146800,0.0,0.0
2022-08-30 00:00:00-04:00,101.46226923385957,101.6857074556587,99.79130769749369,101.08338928222656,148900,0.0,0.0
2022-08-31 00:00:00-04:00,101.40398292129096,101.7731533529894,99.8204590853394,99.87874603271484,180300,0.0,0.0
2022-09-01 00:00:00-04:00,99.44157896609242,99.937040253709,98.44094684089028,99.69416809082031,212200,0.0,0.0
2022-09-02 00:00:00-04:00,100.39364079788524,101.20969517710823,97.84834509430205,98.53810119628906,206000,0.0,0.0
2022-09-06 00:00:00-04:00,98.37295198868806,98.97527026450888,96.96428886711976,97.46946716308594,159300,0.0,0.0
2022-09-07 00:00:00-04:00,97.77061689954385,100.67536588048566,97.75119038781511,100.2964859008789,164200,0.0,0.0
2022-09-08 00:00:00-04:00,99.34443208193838,102.02573543714085,99.21813381300542,101.89944458007812,137900,0.0,0.0
2022-09-09 00:00:00-04:00,102.6669238946982,103.77442039582478,101.69543521568397,103.37611389160156,197100,0.0,0.0
2022-09-12 00:00:00-04:00,104.12414861999531,105.1830676380828,103.69669126347641,104.05614471435547,154500,0.0,0.0
2022-09-13 00:00:00-04:00,102.16174114979087,102.73491584598598,101.01538434553109,101.05423736572266,271700,0.0,0.0
2022-09-14 00:00:00-04:00,100.8502387857127,101.33598313191014,99.52901357110605,100.62680053710938,250700,0.0,0.0
2022-09-15 00:00:00-04:00,100.30619982965854,102.39490184117311,100.27705635701157,102.20059967041016,423000,0.0,0.0
2022-09-16 00:00:00-04:00,101.35541068808473,101.35541068808473,98.50894870174065,99.71359252929688,579400,0.0,0.0
2022-09-19 00:00:00-04:00,98.94611567543599,101.56913942865609,98.9363987137935,101.5497055053711,194400,0.0,0.0
2022-09-20 00:00:00-04:00,100.50049533997762,100.50049533997762,97.81919207023071,98.29521942138672,157500,0.0,0.0
2022-09-21 00:00:00-04:00,98.8878363137289,99.36386370454039,96.78941715021021,96.82827758789062,173500,0.0,0.0
2022-09-22 00:00:00-04:00,96.31337909888104,96.31337909888104,94.49669275072368,95.32246398925781,199200,0.0,0.0
2022-09-23 00:00:00-04:00,94.16639406579235,95.50704571921166,94.16639406579235,95.28360748291016,274900,0.0,0.0
2022-09-26 00:00:00-04:00,94.72013610256612,95.64304728445866,93.6806436233512,94.63270568847656,364000,0.0,0.0
2022-09-27 00:00:00-04:00,95.19616312132523,95.98307390493453,92.51485999840864,93.3211898803711,238600,0.0,0.0
2022-09-28 00:00:00-04:00,93.99153266493809,95.69163790693955,93.31149353288576,95.43904876708984,237000,0.0,0.0
2022-09-29 00:00:00-04:00,94.448130161382,94.48699059780314,93.5252114730881,94.01095581054688,206400,0.0,0.0
2022-09-30 00:00:00-04:00,93.37948302484988,94.97272366977782,92.16512232524812,92.320556640625,471500,0.0,0.0
2022-10-03 00:00:00-04:00,93.70979545491807,95.22531539596609,92.93260897237536,94.66185760498047,274200,0.0,0.0
2022-10-04 00:00:00-04:00,96.2648026469998,96.98370955374973,95.70134488715861,96.40081787109375,262900,0.0,0.0
2022-10-05 00:00:00-04:00,95.29331473391176,96.64369072833762,94.26353917331024,95.38075256347656,201300,0.0,0.0
2022-10-06 00:00:00-04:00,94.87557939238987,95.40017670929257,93.57378082576123,94.95329284667969,202100,0.0,0.0
2022-10-07 00:00:00-04:00,94.16640301353934,94.16640301353934,90.93134375973084,91.3005142211914,119000,0.0,0.0
2022-10-10 00:00:00-04:00,91.69881646610763,92.74802602569372,91.23250604753856,91.67938995361328,177300,0.0,0.0
2022-10-11 00:00:00-04:00,91.12563931738849,92.92289185689488,90.63989498715054,92.03883361816406,369800,0.0,0.0
2022-10-12 00:00:00-04:00,92.05826193443838,92.05826193443838,90.61073858195626,90.70789337158203,147400,0.0,0.0
2022-10-13 00:00:00-04:00,88.47346710448346,92.3205610971036,87.6574202326564,91.86396026611328,237000,0.0,0.0
2022-10-14 00:00:00-04:00,92.6800090347361,93.18517981887234,91.42678791740246,92.36913299560547,319300,0.0,0.0
2022-10-17 00:00:00-04:00,93.28234217552959,94.59385785653218,93.28234217552959,94.54528045654297,344900,0.0,0.0
2022-10-18 00:00:00-04:00,96.4202431247074,97.12943306080201,95.30302975726127,96.44938659667969,281300,0.0,0.0
2022-10-19 00:00:00-04:00,95.89565649894226,96.3814008885095,94.80758639803798,95.409912109375,359500,0.0,0.0
2022-10-20 00:00:00-04:00,95.28360389500314,95.88592208484869,92.70915761646472,93.3309097290039,185600,0.0,0.0
2022-10-21 00:00:00-04:00,92.8354537384103,95.12816756304778,91.83482160708982,94.73957061767578,176400,0.0,0.0
2022-10-24 00:00:00-04:00,95.1087465034713,95.98308782771456,94.49670387056567,95.09902954101562,158500,0.0,0.0
2022-10-25 00:00:00-04:00,94.08473830554523,96.97155011982244,93.59710102392906,96.75698852539062,292500,0.38,0.0
2022-10-26 00:00:00-04:00,97.38117974604766,98.5515138798154,96.51318583656663,96.63996887207031,271900,0.0,0.0
2022-10-27 00:00:00-04:00,96.65947853338206,98.15164767123696,96.42541468293076,96.63996887207031,216700,0.0,0.0
2022-10-28 00:00:00-04:00,99.42924146767989,101.54559298281465,96.76674600397702,98.6295166015625,445300,0.0,0.0
2022-10-31 00:00:00-04:00,97.48844874875874,98.11262390150411,96.64971199211561,96.69847869873047,372900,0.0,0.0
2022-11-01 00:00:00-04:00,97.13735118574695,97.13735118574695,94.48460301457354,94.81620025634766,301300,0.0,0.0
2022-11-02 00:00:00-04:00,94.78694809358534,95.33309953082768,92.2317257650846,92.41703033447266,268400,0.0,0.0
2022-11-03 00:00:00-04:00,91.94890243301053,92.67060366611791,90.26168127878259,92.36827087402344,278300,0.0,0.0
2022-11-04 00:00:00-04:00,94.05548151699875,96.33762042965624,93.85067475104906,96.32786560058594,209100,0.0,0.0
2022-11-07 00:00:00-05:00,96.73749561582832,98.0346052547577,95.55741417366407,98.0053482055664,180700,0.0,0.0
2022-11-08 00:00:00-05:00,98.5027195541727,99.24393022036757,97.65422810310409,97.86878967285156,153100,0.0,0.0
2022-11-09 00:00:00-05:00,97.75176764526067,98.38569012567514,96.11330616690785,96.6692123413086,165300,0.0,0.0
2022-11-10 00:00:00-05:00,100.28748775829739,100.69710129983766,98.5417453513467,99.79985046386719,266000,0.0,0.0
2022-11-11 00:00:00-05:00,100.2972377623237,102.48185825568335,98.95136147327118,101.67237854003906,292600,0.0,0.0
2022-11-14 00:00:00-05:00,101.04821190639306,102.66716403349866,101.04821190639306,101.81867980957031,238400,0.0,0.0
2022-11-15 00:00:00-05:00,103.21330621428406,104.36413046755662,101.7016277030284,102.10149383544922,272500,0.0,0.0
2022-11-16 00:00:00-05:00,102.26729919618415,103.27183088339511,102.11125168244985,102.32581329345703,139300,0.0,0.0
2022-11-17 00:00:00-05:00,101.14571946241568,102.47209340338247,101.14571946241568,102.02346801757812,162700,0.0,0.0
2022-11-18 00:00:00-05:00,103.48639026348893,104.28611515224972,102.02347833716397,103.41812133789062,213200,0.0,0.0
2022-11-21 00:00:00-05:00,103.47663751464346,104.06180080878913,102.33556797494614,102.54037475585938,193300,0.0,0.0
2022-11-22 00:00:00-05:00,102.63789385625377,104.0227894032295,102.63789385625377,103.37910461425781,284000,0.0,0.0
2022-11-23 00:00:00-05:00,103.36934797323266,104.13981576436593,102.9694892749825,103.56440734863281,202100,0.0,0.0
2022-11-25 00:00:00-05:00,103.91552655690072,103.91552655690072,102.94999920664439,103.29135131835938,114700,0.0,0.0
2022-11-28 00:00:00-05:00,102.44284169904996,102.88171227913404,100.68734449720469,100.94091796875,208500,0.0,0.0
2022-11-29 00:00:00-05:00,100.45329009985048,101.52609073897939,100.38502117119923,100.75562286376953,181400,0.0,0.0
2022-11-30 00:00:00-05:00,100.34600536348798,103.55465976599352,98.99037423280163,103.5156478881836,297900,0.0,0.0
2022-12-01 00:00:00-05:00,104.13982879131224,105.11510346804789,103.87650790252593,104.4421615600586,156600,0.0,0.0
2022-12-02 00:00:00-05:00,103.63268313659964,105.86606290782451,103.47663562593972,105.37842559814453,167400,0.0,0.0
2022-12-05 00:00:00-05:00,104.21783796430753,104.2861068844935,103.0670137092052,104.0617904663086,153800,0.0,0.0
2022-12-06 00:00:00-05:00,103.91550717161311,104.43240149703342,102.7646828950954,104.35437774658203,247800,0.0,0.0
2022-12-07 00:00:00-05:00,104.0910602658664,105.48570322721312,103.57415848292639,103.67169189453125,152800,0.0,0.0
2022-12-08 00:00:00-05:00,103.8179884903406,105.27115314580848,103.8179884903406,105.26139831542969,190800,0.0,0.0
2022-12-09 00:00:00-05:00,105.1638821887005,106.28544968318909,104.98833242920875,105.38819122314453,316700,0.0,0.0
2022-12-12 00:00:00-05:00,105.77828600876349,106.09037359430248,104.83226842238612,105.40768432617188,209100,0.0,0.0
2022-12-13 00:00:00-05:00,107.65079825687944,108.36275192656184,104.92003408009667,105.53445434570312,328400,0.0,0.0
2022-12-14 00:00:00-05:00,105.75878008773033,107.55328178157113,104.57869871369823,105.563720703125,302500,0.0,0.0
2022-12-15 00:00:00-05:00,105.03707866587244,105.86606808547613,104.58845321191626,104.98831939697266,230000,0.0,0.0
2022-12-16 00:00:00-05:00,104.46165828214501,105.5832255096285,103.7594594113465,104.78350067138672,540600,0.0,0.0
2022-12-19 00:00:00-05:00,104.66647151241814,105.68075800615152,103.16454771058724,103.63268280029297,269800,0.0,0.0
2022-12-20 00:00:00-05:00,103.79846325671411,105.45642689725412,103.6424157682731,104.47140502929688,193300,0.0,0.0
2022-12-21 00:00:00-05:00,105.31016168592593,107.90438842773438,104.91029550138958,107.90438842773438,388500,0.0,0.0
2022-12-22 00:00:00-05:00,106.79256152991572,108.06042140109311,104.80300058660487,105.87580108642578,213800,0.0,0.0
2022-12-23 00:00:00-05:00,106.44146360348923,107.47525224361951,105.67099581746135,107.28995513916016,161500,0.0,0.0
2022-12-27 00:00:00-05:00,107.18267511777245,108.27497785764758,106.91934682101372,108.12869262695312,101700,0.0,0.0
2022-12-28 00:00:00-05:00,108.3139866455452,109.14297594654217,106.31467832857771,106.47071838378906,162700,0.0,0.0
2022-12-29 00:00:00-05:00,107.20217528351922,108.42126845434005,106.67552614083412,108.05066680908203,128700,0.0,0.0
2022-12-30 00:00:00-05:00,107.76783589435087,108.00189969885503,106.32442631160781,107.26069641113281,172300,0.0,0.0
2023-01-03 00:00:00-05:00,107.84586289191593,108.32374534406271,106.74379787436257,107.53377532958984,239200,0.0,0.0
2023-01-04 00:00:00-05:00,108.50905441084987,109.43556230737798,107.58253907356702,108.47979736328125,217200,0.0,0.0
2023-01-05 00:00:00-05:00,107.90437633220454,110.23528192689936,106.42196228030721,109.34778594970703,310000,0.0,0.0
2023-01-06 00:00:00-05:00,110.5766353388575,111.57141963249171,109.95246016827544,111.23982238769531,181500,0.0,0.0
2023-01-09 00:00:00-05:00,111.79573038744532,112.81977174566677,110.4791110988428,110.52787780761719,161800,0.0,0.0
2023-01-10 00:00:00-05:00,110.39134052424086,111.51290042431526,110.1670240797729,110.62540435791016,163000,0.0,0.0
2023-01-11 00:00:00-05:00,110.77169872492544,111.60068070567976,110.64490825583303,110.6546630859375,141300,0.0,0.0
2023-01-12 00:00:00-05:00,110.87897674372165,110.97650272004657,109.6208715590916,110.69367218017578,179100,0.0,0.0
2023-01-13 00:00:00-05:00,110.41083543186339,111.48363599262359,110.41083543186339,111.15204620361328,177700,0.0,0.0
2023-01-17 00:00:00-05:00,111.35685802246256,111.69820265625667,110.0402387545396,111.23982238769531,204500,0.0,0.0
2023-01-18 00:00:00-05:00,111.65918869723848,111.76646950025388,109.15273323186517,109.20149993896484,118900,0.0,0.0
2023-01-19 00:00:00-05:00,108.8308893421614,109.6306216594884,107.60204870012052,109.22100067138672,177400,0.0,0.0
2023-01-20 00:00:00-05:00,109.67938137465651,110.48886108398438,108.92842320144285,110.48886108398438,180800,0.0,0.0
2023-01-23 00:00:00-05:00,110.40108139917471,110.91798318579559,109.67938028083822,110.55712890625,165500,0.0,0.0
2023-01-24 00:00:00-05:00,110.2352847150311,110.35232034343879,108.9966892709232,110.04998016357422,172600,0.0,0.0
2023-01-25 00:00:00-05:00,109.07471005247224,109.7281497035842,107.75809080213567,109.29902648925781,181200,0.0,0.0
2023-01-26 00:00:00-05:00,109.72814501141445,110.09874667291383,109.05520317058878,110.001220703125,139000,0.0,0.0
2023-01-27 00:00:00-05:00,109.72814927014919,110.14751765319666,109.09421928078608,109.94271087646484,204300,0.0,0.0
2023-01-30 00:00:00-05:00,108.94793569036938,110.52788338081183,108.70411701571344,110.44985961914062,200200,0.0,0.0
2023-01-31 00:00:00-05:00,111.01550193534723,113.44393344037864,110.5181098398454,112.78074645996094,630900,0.0,0.0
2023-02-01 00:00:00-05:00,111.98818275045524,115.52053241285088,111.92947573660169,114.57139587402344,190900,0.38,0.0
2023-02-02 00:00:00-05:00,114.57138889039847,115.7945013730372,114.0723643724879,114.7768783569336,271600,0.0,0.0
2023-02-03 00:00:00-05:00,114.08214072538685,114.08214072538685,112.731827269601,112.93730926513672,284100,0.0,0.0
2023-02-06 00:00:00-05:00,112.09581247400796,113.0155954666978,110.99990844726562,110.99990844726562,180400,0.0,0.0
2023-02-07 00:00:00-05:00,110.24645778648217,110.4030197574336,108.32861843404118,109.77678680419922,189100,0.0,0.0
2023-02-08 00:00:00-05:00,109.3168985454117,109.74743651284261,108.17206709414592,108.18184661865234,138800,0.0,0.0
2023-02-09 00:00:00-05:00,109.08205244861367,109.40494842752729,106.8902297958266,106.90001678466797,180200,0.0,0.0
2023-02-10 00:00:00-05:00,106.65540362822738,106.87067260981264,105.56927919589137,106.86088562011719,217900,0.0,0.0
2023-02-13 00:00:00-05:00,107.04681202406732,108.16229007405968,106.90003702479747,107.4382095336914,184900,0.0,0.0
2023-02-14 00:00:00-05:00,107.43820360568301,108.80808361585296,107.30121560466603,107.39906311035156,122500,0.0,0.0
2023-02-15 00:00:00-05:00,106.4792740360057,108.02528991928148,106.23465155315647,108.0155029296875,155200,0.0,0.0
2023-02-16 00:00:00-05:00,106.38143267257288,109.1309871495159,105.85304718330413,108.3090591430664,372200,0.0,0.0
2023-02-17 00:00:00-05:00,112.52635733784415,118.67127374410836,111.56743379058679,114.18000793457031,590700,0.0,0.0
2023-02-21 00:00:00-05:00,113.99408350673167,113.99408350673167,110.67700304740676,112.60462951660156,463900,0.0,0.0
2023-02-22 00:00:00-05:00,112.14473062359853,113.5048310187556,111.96860213892352,112.25236511230469,257700,0.0,0.0
2023-02-23 00:00:00-05:00,112.34043243199615,113.07429991841427,110.64764894388522,112.09580993652344,196400,0.0,0.0
2023-02-24 00:00:00-05:00,111.35217096867521,112.56549654358277,110.55958894969791,112.30130004882812,215100,0.0,0.0
2023-02-27 00:00:00-05:00,113.34828540810467,114.72795998141066,113.02538936066618,114.18000793457031,215300,0.0,0.0
2023-02-28 00:00:00-05:00,114.14086421141212,115.56945876837499,114.08214973284754,114.20935821533203,261500,0.0,0.0
2023-03-01 00:00:00-05:00,113.68095999149226,115.08020088539392,113.68095999149226,114.93342590332031,194700,0.0,0.0
2023-03-02 00:00:00-05:00,114.89429070070614,116.44030664786749,114.7083826824528,116.02934265136719,205000,0.0,0.0
2023-03-03 00:00:00-05:00,116.41094808637314,117.66341400146484,115.31503667802504,117.66341400146484,225400,0.0,0.0
2023-03-06 00:00:00-05:00,117.54599853680486,117.6047130119629,114.07236358913649,114.31698608398438,265900,0.0,0.0
2023-03-07 00:00:00-05:00,114.199571405546,114.81601744180146,113.72011337734729,114.16043090820312,247100,0.0,0.0
2023-03-08 00:00:00-05:00,113.90601405901887,114.18976956359856,112.69268119505315,112.8492431640625,281700,0.0,0.0
2023-03-09 00:00:00-05:00,113.4656912238342,113.90601617087256,112.06645032733448,112.1055908203125,189700,0.0,0.0
2023-03-10 00:00:00-05:00,112.17409308545392,112.17409308545392,109.86485608652902,110.13883209228516,201400,0.0,0.0
2023-03-13 00:00:00-04:00,109.05271206509913,110.67700911622507,109.05271206509913,109.56153106689453,245400,0.0,0.0
2023-03-14 00:00:00-04:00,111.42065752794538,112.7807580129058,111.04882655503299,112.60462951660156,261500,0.0,0.0
2023-03-15 00:00:00-04:00,111.0194680262325,111.30323100550942,107.80023521823885,108.98420715332031,256200,0.0,0.0
2023-03-16 00:00:00-04:00,107.84917154248042,110.84334862432897,107.58497505567823,110.25625610351562,209200,0.0,0.0
2023-03-17 00:00:00-04:00,110.49109039168059,110.49109039168059,107.58497386085018,108.37755584716797,393800,0.0,0.0
2023-03-20 00:00:00-04:00,109.39519461393994,111.02927126608564,109.39519461393994,110.35411071777344,146400,0.0,0.0
2023-03-21 00:00:00-04:00,111.67506034275999,111.76312832418068,110.05077083445002,110.58893585205078,141200,0.0,0.0
2023-03-22 00:00:00-04:00,110.3736751112363,111.76312912114271,109.7278681271668,109.83550262451172,176700,0.0,0.0
2023-03-23 00:00:00-04:00,109.73765315219785,111.00968565168763,108.42647269224416,109.31690216064453,156900,0.0,0.0
2023-03-24 00:00:00-04:00,108.63195620067049,110.55958268953378,107.65346620350424,110.5400161743164,148800,0.0,0.0
2023-03-27 00:00:00-04:00,111.01948602037014,112.36979967293698,111.01948602037014,111.52830505371094,170100,0.0,0.0
2023-03-28 00:00:00-04:00,111.32279368044414,112.64376103003902,110.70634772517593,112.54590606689453,189800,0.0,0.0
2023-03-29 00:00:00-04:00,113.20151127067999,113.4461337723694,112.68291276154427,113.37763977050781,138700,0.0,0.0
2023-03-30 00:00:00-04:00,113.77881321274664,114.25827121069774,112.57527472284893,113.4559097290039,148000,0.0,0.0
2023-03-31 00:00:00-04:00,114.01364409898393,115.72600148759955,114.01364409898393,115.6477279663086,206300,0.0,0.0
2023-04-03 00:00:00-04:00,115.39333294798925,116.25440151234267,115.11935692593529,116.09784698486328,151100,0.0,0.0
2023-04-04 00:00:00-04:00,115.95106450381833,115.95106450381833,114.2680605165745,115.138916015625,183100,0.0,0.0
2023-04-05 00:00:00-04:00,115.20741233178677,116.63600685854641,114.70838779890055,116.51859283447266,249700,0.0,0.0
2023-04-06 00:00:00-04:00,116.77299181083052,116.77299181083052,115.3933248070262,116.49901580810547,159300,0.0,0.0
2023-04-10 00:00:00-04:00,115.83364062516607,116.65557608662692,115.43246361711488,116.53815460205078,174600,0.0,0.0
2023-04-11 00:00:00-04:00,116.63600244885973,117.40901042769431,116.27396593460473,116.4892349243164,121800,0.0,0.0
2023-04-12 00:00:00-04:00,116.76321254687886,117.09589556084956,115.64773455312766,115.84342956542969,134300,0.0,0.0
2023-04-13 00:00:00-04:00,115.80428084065862,117.41879070592218,115.3541763721202,117.20352172851562,110700,0.0,0.0
2023-04-14 00:00:00-04:00,116.61641981598562,117.47748819053443,115.76513096486397,116.635986328125,233600,0.0,0.0
2023-04-17 00:00:00-04:00,116.92955774982464,117.2328872680664,115.98042123305805,117.2328872680664,122400,0.0,0.0
2023-04-18 00:00:00-04:00,117.15461668690735,117.15461668690735,115.51075310828533,116.03913116455078,261700,0.0,0.0
2023-04-19 00:00:00-04:00,115.8238569206279,116.86105386845279,115.52051996274105,116.15653991699219,252900,0.0,0.0
2023-04-20 00:00:00-04:00,116.44030439380829,117.22309934223397,115.97062593169571,116.46965789794922,296800,0.0,0.0
2023-04-21 00:00:00-04:00,116.7534299567376,118.46578750741529,116.24461842640514,117.99610900878906,361500,0.0,0.0
2023-04-24 00:00:00-04:00,118.26029276247478,118.80824473079451,117.1643813605496,117.81018829345703,229600,0.0,0.0
2023-04-25 00:00:00-04:00,116.86106627113051,117.36987780936104,115.34440371658748,115.53031921386719,167500,0.0,0.0
2023-04-26 00:00:00-04:00,114.4931075181641,115.05084647341042,113.12322013843884,113.26020812988281,247200,0.0,0.0
2023-04-27 00:00:00-04:00,113.26022238732834,114.07237091404232,112.16431085253525,114.06258392333984,361900,0.0,0.0
2023-04-28 00:00:00-04:00,114.00386604924881,116.99804290432304,114.00386604924881,115.96084594726562,586700,0.0,0.0
2023-05-01 00:00:00-04:00,116.84148544332882,119.86501572606133,116.84148544332882,119.02351379394531,283100,0.0,0.0
2023-05-02 00:00:00-04:00,118.14287552500228,118.27986352199954,113.24064620684463,117.88847351074219,359200,0.0,0.0
2023-05-03 00:00:00-04:00,118.25165760847847,118.78171490676155,117.53509658795517,117.69215393066406,294300,0.38,0.0
2023-05-04 00:00:00-04:00,117.73141886029768,117.93755100696332,116.20995767298123,116.61241149902344,192500,0.0,0.0
2023-05-05 00:00:00-04:00,116.79891769365565,119.63570067463124,116.79891769365565,119.45901489257812,171100,0.0,0.0
2023-05-08 00:00:00-04:00,119.61605920868642,120.08721625019025,118.43815911602067,119.26268768310547,200400,0.0,0.0
2023-05-09 00:00:00-04:00,118.64430286832271,118.80135273455751,117.48603108532694,118.3596420288086,185600,0.0,0.0
2023-05-10 00:00:00-04:00,118.8602453836766,119.33140995974044,116.31794123325378,117.41732025146484,227200,0.0,0.0
2023-05-11 00:00:00-04:00,117.27988643131667,117.62343999796188,116.76945757038143,117.08356475830078,203900,0.0,0.0
2023-05-12 00:00:00-04:00,117.47620439946992,118.64429405259523,117.15227924523927,118.56576538085938,168400,0.0,0.0
2023-05-15 00:00:00-04:00,118.36945249682478,118.84061707334293,117.82958468856575,118.3596420288086,148300,0.0,0.0
2023-05-16 00:00:00-04:00,118.35964475431099,118.35964475431099,116.03328317782653,116.1412582397461,180800,0.0,0.0
2023-05-17 00:00:00-04:00,116.63203460622199,116.84798469923967,115.29707720293632,116.7792739868164,168600,0.0,0.0
2023-05-18 00:00:00-04:00,115.99401185542538,116.857812298782,115.61119392763109,116.79891204833984,94000,0.0,0.0
2023-05-19 00:00:00-04:00,117.67252566837792,118.05534360498534,116.41609680065028,116.8970718383789,156900,0.0,0.0
2023-05-22 00:00:00-04:00,116.4848073931993,117.3191539851791,115.71917152082003,115.95475006103516,229600,0.0,0.0
2023-05-23 00:00:00-04:00,115.23818978808656,116.26885052221142,114.7572147788283,115.0222396850586,155400,0.0,0.0
2023-05-24 00:00:00-04:00,115.0320502943602,115.0320502943602,112.91182122430791,113.00016784667969,297800,0.0,0.0
2023-05-25 00:00:00-04:00,112.1854616347367,113.15722965008982,111.35111505634639,111.44927215576172,196800,0.0,0.0
2023-05-26 00:00:00-04:00,110.90939246562569,112.38177136503076,110.87012812963945,112.05785369873047,210200,0.0,0.0
2023-05-30 00:00:00-04:00,112.10692956090803,112.60754048832791,110.92902942582099,111.2725830078125,136100,0.0,0.0
2023-05-31 00:00:00-04:00,111.35111314041339,111.46889866212248,109.6333377190282,110.4186019897461,360800,0.0,0.0
2023-06-01 00:00:00-04:00,110.74252041208102,111.42962754325274,109.9768846119451,110.86031341552734,170700,0.0,0.0
2023-06-02 00:00:00-04:00,111.9106143110087,112.63698580448809,111.56706073226212,112.05785369873047,353000,0.0,0.0
2023-06-05 00:00:00-04:00,111.70448262306778,112.12656487552233,110.80141786948396,110.97810363769531,237400,0.0,0.0
2023-06-06 00:00:00-04:00,110.95847597543488,112.54864790024835,110.95847597543488,112.21490478515625,266900,0.0,0.0
2023-06-07 00:00:00-04:00,112.25416759300819,113.56948914499125,111.9596888183431,113.28483581542969,264100,0.0,0.0
2023-06-08 00:00:00-04:00,113.43206874182783,113.85415099525619,112.67625086373383,113.07869720458984,270500,0.0,0.0
2023-06-09 00:00:00-04:00,112.9412812011952,113.441892151164,112.28362038763048,112.69588470458984,295000,0.0,0.0
2023-06-12 00:00:00-04:00,112.56827265525595,113.46151194068716,112.19527270480974,113.26519775390625,353000,0.0,0.0
2023-06-13 00:00:00-04:00,113.57931687213875,114.24679566174903,112.6468131536555,113.0885238647461,340600,0.0,0.0
2023-06-14 00:00:00-04:00,113.48114700172985,113.8247005704733,112.24434666534736,113.03943634033203,225200,0.0,0.0
2023-06-15 00:00:00-04:00,112.88237959001259,114.25660136106355,112.8332972989762,113.91304779052734,362600,0.0,0.0
2023-06-16 00:00:00-04:00,113.52041889696864,115.05169061329613,113.23575806707835,114.9927978515625,975300,0.0,0.0
2023-06-20 00:00:00-04:00,114.72776900845409,114.79647972891246,113.57931518554688,113.57931518554688,297000,0.0,0.0
2023-06-21 00:00:00-04:00,113.01980117361711,113.13759417892268,111.33147220876805,111.52779388427734,317800,0.0,0.0
2023-06-22 00:00:00-04:00,111.85171029681588,111.95968534491618,110.28117435477432,111.94987487792969,266200,0.0,0.0
2023-06-23 00:00:00-04:00,110.82105293963065,111.63577105846272,110.00633482079857,110.7523422241211,366000,0.0,0.0
2023-06-26 00:00:00-04:00,110.97809961220085,112.2639822354489,110.97809961220085,111.51797485351562,142300,0.0,0.0
2023-06-27 00:00:00-04:00,111.73392545883496,112.7056934087205,111.14497541311361,112.60753631591797,218300,0.0,0.0
2023-06-28 00:00:00-04:00,112.69588087233157,112.69588087233157,110.40879129331206,111.42963409423828,204800,0.0,0.0
2023-06-29 00:00:00-04:00,111.34128815439487,113.23574922764271,110.47749526446913,112.66642761230469,225900,0.0,0.0
2023-06-30 00:00:00-04:00,113.09833284074686,114.13881153734555,112.72532539184819,113.72654724121094,279800,0.0,0.0
2023-07-03 00:00:00-04:00,113.28483072512633,114.86517711217213,113.28483072512633,114.3940200805664,85700,0.0,0.0
2023-07-05 00:00:00-04:00,113.49096391458002,113.49096391458002,110.68362765481089,110.86031341552734,384200,0.0,0.0
2023-07-06 00:00:00-04:00,110.18302145320327,110.89958248249435,109.57443547611915,110.39897155761719,277700,0.0,0.0
2023-07-07 00:00:00-04:00,110.57566419205385,113.20631496671577,110.51676393970676,111.69467163085938,333400,0.0,0.0
2023-07-10 00:00:00-04:00,111.22350117784158,113.17686260297434,110.929029887298,112.36214447021484,248000,0.0,0.0
2023-07-11 00:00:00-04:00,112.2050804175846,113.4320627771117,111.2823947756763,113.38298797607422,226700,0.0,0.0
2023-07-12 00:00:00-04:00,114.43328809873285,115.38542763725938,113.63819841282893,114.71794891357422,199400,0.0,0.0
2023-07-13 00:00:00-04:00,114.6983046084403,115.20873344215246,114.41364381442882,114.85536193847656,190200,0.0,0.0
2023-07-14 00:00:00-04:00,115.52285721600032,116.65167511001793,114.55108169677736,116.17070007324219,271600,0.0,0.0
2023-07-17 00:00:00-04:00,116.21977744333584,117.33878482207749,115.00261296782688,117.0639419555664,234200,0.0,0.0
2023-07-18 00:00:00-04:00,116.81854971788495,118.15350725141096,116.5142529712606,116.88726043701172,189100,0.0,0.0
2023-07-19 00:00:00-04:00,116.56333073191328,117.21118104897205,116.13143052054077,116.91670227050781,247200,0.0,0.0
2023-07-20 00:00:00-04:00,117.57437061931748,118.00627085847698,116.67131329099026,117.13265991210938,175800,0.0,0.0
2023-07-21 00:00:00-04:00,117.44675876945266,117.83939464173179,116.68112293740685,117.63325500488281,184300,0.0,0.0
2023-07-24 00:00:00-04:00,117.80993713596214,118.27128370997957,116.52406199562894,117.52528381347656,163400,0.0,0.0
2023-07-25 00:00:00-04:00,117.476210996403,118.88969721139811,117.10321101807118,118.34000396728516,250700,0.0,0.0
2023-07-26 00:00:00-04:00,118.34985607308383,118.58623849459941,117.03003856449325,118.14301300048828,306900,0.41,0.0
2023-07-27 00:00:00-04:00,118.25135370008546,118.96050846224766,116.95123914094194,117.34521484375,407800,0.0,0.0
2023-07-28 00:00:00-04:00,120.64475358705498,125.07696356835932,120.04394229954343,121.91532135009766,513000,0.0,0.0
2023-07-31 00:00:00-04:00,121.6592367554332,122.06306394094794,119.00976521560548,119.6302719116211,746500,0.0,0.0
2023-08-01 00:00:00-04:00,119.41358520927224,120.65460611911824,118.93096888884513,120.59551239013672,365300,0.0,0.0
2023-08-02 00:00:00-04:00,119.61056990014845,120.48716189674361,118.17256496736918,120.39851379394531,329200,0.0,0.0
2023-08-03 00:00:00-04:00,119.68936222304521,120.88114082631289,118.90141830822384,118.99005889892578,195900,0.0,0.0
2023-08-04 00:00:00-04:00,118.80292117376706,120.29016834905809,118.66503080671306,118.82261657714844,116500,0.0,0.0
2023-08-07 00:00:00-04:00,118.91126810573093,119.82725843582493,118.69458108998327,119.46282958984375,140300,0.0,0.0
2023-08-08 00:00:00-04:00,118.27106103766785,119.57117564539334,117.90663218392186,119.29539489746094,270100,0.0,0.0
2023-08-09 00:00:00-04:00,119.295394245377,121.53119459486082,118.70442691508153,119.99469757080078,287500,0.0,0.0
2023-08-10 00:00:00-04:00,119.96514930096563,121.70848186440932,119.96514930096563,120.388671875,216000,0.0,0.0
2023-08-11 00:00:00-04:00,119.67951193116477,121.36375069533648,119.67951193116477,120.762939453125,226500,0.0,0.0
2023-08-14 00:00:00-04:00,120.1916774853484,121.13721466064453,119.74845951752447,121.13721466064453,145700,0.0,0.0
2023-08-15 00:00:00-04:00,120.7826366360751,121.07812028935527,120.14243457807048,120.25077056884766,249000,0.0,0.0
2023-08-16 00:00:00-04:00,119.89620081716167,121.3046588721182,119.65981088853212,119.70906066894531,291100,0.0,0.0
2023-08-17 00:00:00-04:00,120.12274286789547,120.81220228505703,119.78786837643065,119.80756378173828,186600,0.0,0.0
2023-08-18 00:00:00-04:00,119.55146315029884,121.56073238574015,119.55146315029884,121.43269348144531,443100,0.0,0.0
2023-08-21 00:00:00-04:00,121.29481465792134,122.58507782562879,121.20616655077505,121.91532135009766,358800,0.0,0.0
2023-08-22 00:00:00-04:00,122.00395514990728,123.81623274501855,120.91067621490348,121.09780883789062,429600,0.0,0.0
2023-08-23 00:00:00-04:00,121.20616606012085,121.69863383382778,120.46746439956047,121.53119659423828,305000,0.0,0.0
2023-08-24 00:00:00-04:00,121.62968254967774,123.57000668314262,120.74323909854385,123.22528076171875,278400,0.0,0.0
2023-08-25 00:00:00-04:00,123.67835108442223,125.75656560150136,123.0972427433097,125.6186752319336,493000,0.0,0.0
2023-08-28 00:00:00-04:00,125.70731870235188,127.62794749015404,125.70731870235188,127.46051025390625,331900,0.0,0.0
2023-08-29 00:00:00-04:00,127.84463920951127,129.97210363463523,127.45065596656757,129.83421325683594,472400,0.0,0.0
2023-08-30 00:00:00-04:00,130.3759061188692,131.25249810459778,129.71600114344866,130.88807678222656,298900,0.0,0.0
2023-08-31 00:00:00-04:00,131.27221943038705,131.71543745765064,130.24789298895732,130.5630645751953,305800,0.0,0.0
2023-09-01 00:00:00-04:00,131.09494026639382,131.77453323665583,130.52367578923537,130.55322265625,252000,0.0,0.0
2023-09-05 00:00:00-04:00,129.69629407214597,129.99177771573278,125.44138070283232,125.6482162475586,325300,0.0,0.0
2023-09-06 00:00:00-04:00,125.86490743154572,126.08158692765036,124.29885609165704,124.50569915771484,291100,0.0,0.0
2023-09-07 00:00:00-04:00,124.38750213384363,125.25424264729504,123.25482483384212,123.47151184082031,328600,0.0,0.0
2023-09-08 00:00:00-04:00,123.61925570619994,124.76177696941134,123.23513146547303,123.4222640991211,238800,0.0,0.0
2023-09-11 00:00:00-04:00,125.07696150990851,126.00280331761621,124.50570461048845,125.09666442871094,333500,0.0,0.0
2023-09-12 00:00:00-04:00,124.21021500686247,125.37243918341215,123.53060711543807,124.62388610839844,258000,0.0,0.0
2023-09-13 00:00:00-04:00,123.88518867479367,124.68298404247041,123.2252836789509,123.48136901855469,279300,0.0,0.0
2023-09-14 00:00:00-04:00,124.11172409736754,125.38229179040027,124.11172409736754,124.85042572021484,217900,0.0,0.0
2023-09-15 00:00:00-04:00,124.58449760838674,125.28380095833782,123.28438296216771,124.0329360961914,589200,0.0,0.0
2023-09-18 00:00:00-04:00,124.45644630402369,124.45644630402369,123.03813682585913,123.7472915649414,175100,0.0,0.0
2023-09-19 00:00:00-04:00,123.79654439534015,123.79654439534015,122.19109473410884,123.4222640991211,218600,0.0,0.0
2023-09-20 00:00:00-04:00,123.94427343429821,124.20035875537468,122.68355726047733,122.75250244140625,206200,0.0,0.0
2023-09-21 00:00:00-04:00,122.45702914619172,122.47672454928626,120.34926783539315,120.37881469726562,335700,0.0,0.0
2023-09-22 00:00:00-04:00,120.4871679803028,121.0485809448334,120.27048095636783,120.83189392089844,341200,0.0,0.0
2023-09-25 00:00:00-04:00,120.15228116938907,122.26004256679889,119.64011800881072,122.17140197753906,258800,0.0,0.0
2023-09-26 00:00:00-04:00,121.66908429375634,122.34869221115255,121.37360814470796,121.73802947998047,547000,0.0,0.0
2023-09-27 00:00:00-04:00,122.17140377584057,122.57522343473762,121.01903101173075,121.65923309326172,362400,0.0,0.0
2023-09-28 00:00:00-04:00,121.99411766733463,123.74730174176703,121.4031578409867,123.57986450195312,219300,0.0,0.0
2023-09-29 00:00:00-04:00,124.58450280627495,124.91938482012402,122.91011528041668,123.1563491821289,330900,0.0,0.0
2023-10-02 00:00:00-04:00,122.65402041708958,123.58971367978923,122.12215432885712,123.16619110107422,244100,0.0,0.0
2023-10-03 00:00:00-04:00,122.15170522531392,123.42227300340691,120.644755016134,121.01903533935547,236300,0.0,0.0
2023-10-04 00:00:00-04:00,121.68879452704238,122.7820736275,120.48717191108265,122.35855102539062,208200,0.0,0.0
2023-10-05 00:00:00-04:00,122.09260826611496,123.04799693932927,120.95008695070266,121.88577270507812,466700,0.0,0.0
2023-10-06 00:00:00-04:00,121.74787677417403,124.78147989317664,121.53118976360791,124.50569915771484,491700,0.0,0.0
2023-10-09 00:00:00-04:00,123.92457953820296,125.30349068800582,123.79654063333874,125.0277099609375,275700,0.0,0.0
2023-10-10 00:00:00-04:00,125.3232028252605,126.6725672936951,124.60420405003339,124.63375091552734,322000,0.0,0.0
2023-10-11 00:00:00-04:00,125.60883331298828,125.77627055811458,124.74209270780912,125.60883331298828,212900,0.0,0.0
2023-10-12 00:00:00-04:00,125.30349604416907,125.48078473550004,123.17603174819745,123.53060913085938,189300,0.0,0.0
2023-10-13 00:00:00-04:00,124.10187352296693,124.761778507277,123.51091372336892,124.07232666015625,324900,0.0,0.0
2023-10-16 00:00:00-04:00,125.44138756500169,125.51033275034871,124.26931189964081,124.80117797851562,275200,0.0,0.0
2023-10-17 00:00:00-04:00,124.11172912949101,126.4066232198593,124.11172912949101,125.55958557128906,314400,0.0,0.0
2023-10-18 00:00:00-04:00,124.95877292177799,125.74671683410875,124.37765705376466,124.87012481689453,287300,0.0,0.0
2023-10-19 00:00:00-04:00,124.18067105542181,125.54973081483128,123.50106314806689,123.83594512939453,443900,0.0,0.0
2023-10-20 00:00:00-04:00,124.03292439990166,124.5746419157682,120.09318250839613,120.37881469726562,446500,0.0,0.0
2023-10-23 00:00:00-04:00,119.88634948649754,121.30465900194697,119.38403028069895,119.66966247558594,379000,0.0,0.0
2023-10-24 00:00:00-04:00,120.2901701673284,121.90546378962974,119.88635051898383,121.48194122314453,312100,0.0,0.0
2023-10-25 00:00:00-04:00,120.98783390708984,122.32193004982163,120.45419394209233,120.92854309082031,431300,0.41,0.0
2023-10-26 00:00:00-04:00,119.8316297385119,123.91297802297464,119.8316297385119,121.97606658935547,576000,0.0,0.0
2023-10-27 00:00:00-04:00,122.01559371378868,122.38123049558588,118.94222716992682,119.74268341064453,364000,0.0,0.0
2023-10-30 00:00:00-04:00,120.4838332587018,120.8791229394024,119.42643769805373,120.73088836669922,283100,0.0,0.0
2023-10-31 00:00:00-04:00,121.0668978964798,121.44241897947953,120.39490764196373,120.82971954345703,422900,0.0,0.0
2023-11-01 00:00:00-04:00,120.67160832753754,121.97605911265033,120.17749806742626,121.48194885253906,360500,0.0,0.0
2023-11-02 00:00:00-04:00,122.26264837035367,122.82593378558079,121.53136727012583,122.12429809570312,384300,0.0,0.0
2023-11-03 00:00:00-04:00,122.96428251310115,124.48614305463377,122.96428251310115,123.87344360351562,278000,0.0,0.0
2023-11-06 00:00:00-05:00,123.7943839445495,124.24897202852465,123.28051258024303,123.71533203125,173500,0.0,0.0
2023-11-07 00:00:00-05:00,123.15204561917379,123.51768239133312,122.70734185531134,123.08287048339844,205000,0.0,0.0
2023-11-08 00:00:00-05:00,123.40897033892367,124.01178543249576,122.94451304836508,123.64614868164062,175800,0.0,0.0
2023-11-09 00:00:00-05:00,124.20944098820135,124.20944098820135,122.60852101331227,122.92475128173828,118600,0.0,0.0
2023-11-10 00:00:00-05:00,122.77651268056438,124.3082574697725,122.43063701383082,124.23908233642578,195600,0.0,0.0
2023-11-13 00:00:00-05:00,123.91297299029823,124.00191675951038,122.90499135621492,123.06310272216797,183100,0.0,0.0
2023-11-14 00:00:00-05:00,124.46637361252297,126.35387845706128,123.83391307203956,126.343994140625,267400,0.0,0.0
2023-11-15 00:00:00-05:00,126.3143475614149,127.28280699604653,125.8498827070265,126.20564270019531,388600,0.0,0.0
2023-11-16 00:00:00-05:00,126.14635167264116,127.1049192498191,125.34588791957243,126.04753112792969,217000,0.0,0.0
2023-11-17 00:00:00-05:00,127.04562613275004,127.55950501919288,126.10681966568688,126.42304992675781,162700,0.0,0.0
2023-11-20 00:00:00-05:00,125.94869452214077,126.14634313771529,124.9407129710439,125.82022857666016,213900,0.0,0.0
2023-11-21 00:00:00-05:00,125.95858603909745,126.78869519292185,125.70164659392273,126.40328979492188,160600,0.0,0.0
2023-11-22 00:00:00-05:00,126.93692238821531,127.67808777593831,125.85976564369618,127.0555191040039,174800,0.0,0.0
2023-11-24 00:00:00-05:00,127.45079537210742,127.45079537210742,126.59104838749163,127.01597595214844,65900,0.0,0.0
2023-11-27 00:00:00-05:00,126.3143459530231,126.78869511771629,125.35577084694202,125.5040054321289,367500,0.0,0.0
2023-11-28 00:00:00-05:00,125.504004627321,125.51388894347652,124.01178954785065,124.13037872314453,218000,0.0,0.0
2023-11-29 00:00:00-05:00,124.16001994636261,124.9110696188559,123.44849999763464,123.89320373535156,331800,0.0,0.0
2023-11-30 00:00:00-05:00,123.97226185014588,125.63247263378987,123.33980131728381,125.39530181884766,301000,0.0,0.0
2023-12-01 00:00:00-05:00,124.93083848043351,127.02586119361783,124.93083848043351,126.59105682373047,218300,0.0,0.0
2023-12-04 00:00:00-05:00,125.94870483790406,127.36186805155403,125.39530374801691,126.90727996826172,192000,0.0,0.0
2023-12-05 00:00:00-05:00,126.7392779421962,127.17409737078592,124.39719266482523,124.50589752197266,178000,0.0,0.0
2023-12-06 00:00:00-05:00,124.90118504227478,125.80046929212959,124.39719048972401,124.88142395019531,179500,0.0,0.0
2023-12-07 00:00:00-05:00,124.75296012128835,125.6127147140196,124.50590498378766,125.00001525878906,254000,0.0,0.0
2023-12-08 00:00:00-05:00,124.87153784047376,125.99810856091534,124.14025681165745,125.82022857666016,265800,0.0,0.0
2023-12-11 00:00:00-05:00,125.76093770078381,126.17598848400344,124.8517691486293,126.0672836303711,338000,0.0,0.0
2023-12-12 00:00:00-05:00,126.14634344732815,126.59104717881948,125.18776839312937,125.97834777832031,210300,0.0,0.0
2023-12-13 00:00:00-05:00,125.6818997010784,127.47058416364571,125.6818997010784,127.07528686523438,425000,0.0,0.0
2023-12-14 00:00:00-05:00,127.55951044773897,128.47854832161434,125.38542071327007,125.89929962158203,412900,0.0,0.0
2023-12-15 00:00:00-05:00,125.66212560679767,127.06539694313376,124.48614076913015,124.49602508544922,713000,0.0,0.0
2023-12-18 00:00:00-05:00,125.21742212064312,125.71153238433733,124.39719727342491,125.55342102050781,240500,0.0,0.0
2023-12-19 00:00:00-05:00,126.20565001229838,126.62070838805917,124.54543912782937,124.74308776855469,659100,0.0,0.0
2023-12-20 00:00:00-05:00,124.53553939309275,125.44470794882234,123.98213834662378,124.0908432006836,346400,0.0,0.0
2023-12-21 00:00:00-05:00,124.75295640698745,124.75295640698745,123.3793304865428,124.42684936523438,421900,0.0,0.0
2023-12-22 00:00:00-05:00,124.91107389434772,125.54353441719309,124.63437335804339,124.78260040283203,312200,0.0,0.0
2023-12-26 00:00:00-05:00,124.6541318886724,125.3755361630872,124.11060760387191,124.34778594970703,274700,0.0,0.0
2023-12-27 00:00:00-05:00,124.63437705637008,124.98025273701381,123.5572127486232,123.80426788330078,283100,0.0,0.0
2023-12-28 00:00:00-05:00,123.5078022894211,124.31814280362717,122.93463258584202,123.72520446777344,343600,0.0,0.0
2023-12-29 00:00:00-05:00,123.71532421021986,123.88331988220698,122.1045200037436,122.163818359375,313500,0.0,0.0
2024-01-02 00:00:00-05:00,121.16572465711982,122.63817119494288,120.84949437638886,121.43254089355469,313100,0.0,0.0
2024-01-03 00:00:00-05:00,123.67579826718928,125.76094414531796,121.69935724826344,123.8833236694336,531700,0.0,0.0
2024-01-04 00:00:00-05:00,123.70543510336286,124.4367161186209,122.6678006245252,122.75674438476562,353300,0.0,0.0
2024-01-05 00:00:00-05:00,122.32194105205798,122.90499510940546,121.54124589635266,122.73699188232422,423000,0.0,0.0
2024-01-08 00:00:00-05:00,122.60852284211245,123.68568715781811,120.92855092970204,122.88522338867188,352400,0.0,0.0
2024-01-09 00:00:00-05:00,122.25276515945477,123.17181058624556,121.52148405261278,123.16192626953125,250300,0.0,0.0
2024-01-10 00:00:00-05:00,122.99392771839973,123.94261853371319,122.76664121593656,123.71533203125,279600,0.0,0.0
2024-01-11 00:00:00-05:00,123.90308518645588,125.47435972243426,123.46827328767989,125.34588623046875,323100,0.0,0.0
2024-01-12 00:00:00-05:00,126.38352064693153,126.46258009735882,124.43672503242341,124.94071960449219,231700,0.0,0.0
2024-01-16 00:00:00-05:00,124.39720061596798,125.32613034932112,124.03156383630517,125.31624603271484,257500,0.0,0.0
2024-01-17 00:00:00-05:00,124.45649695012426,125.77082453543308,124.40708290742177,125.19766235351562,336900,0.0,0.0
2024-01-18 00:00:00-05:00,125.82023625809498,128.4785443290313,124.82213142219884,127.6187973022461,444200,0.0,0.0
2024-01-19 00:00:00-05:00,128.18209008005715,129.91147598730586,127.02585880393394,129.25924682617188,418000,0.0,0.0
2024-01-22 00:00:00-05:00,129.35804569822244,130.25732989071665,129.02205437763564,129.64463806152344,266200,0.0,0.0
2024-01-23 00:00:00-05:00,130.24746945845396,130.296883500987,128.79478406646476,130.27711486816406,217800,0.0,0.0
2024-01-24 00:00:00-05:00,130.5636832420236,130.73167891188575,129.00229309506915,129.23947143554688,294400,0.0,0.0
2024-01-25 00:00:00-05:00,130.474759807906,130.82064303679127,128.84420190955913,129.70394897460938,332300,0.0,0.0
2024-01-26 00:00:00-05:00,130.12888248874302,131.02816686144587,129.85218192468827,130.14865112304688,219900,0.0,0.0
2024-01-29 00:00:00-05:00,129.50630753208833,131.02816056121415,128.952906430588,130.69216918945312,187800,0.0,0.0
2024-01-30 00:00:00-05:00,130.47475945971385,131.52227084170357,130.07947726694195,130.69216918945312,228400,0.0,0.0
2024-01-31 00:00:00-05:00,131.2175488168734,131.6140753923471,128.03550435063644,128.74923706054688,537500,0.41,0.0
2024-02-01 00:00:00-05:00,129.32418547298803,129.9685203411413,128.48157975991825,129.36383056640625,298800,0.0,0.0
2024-02-02 00:00:00-05:00,128.82853516166915,129.57200543236544,127.56958793469315,128.96731567382812,344800,0.0,0.0
2024-02-05 00:00:00-05:00,128.00577179741288,130.30556552210692,126.9351726903174,129.5125274658203,319500,0.0,0.0
2024-02-06 00:00:00-05:00,129.34400751468976,130.2559959724917,128.17428812075116,129.9883575439453,369700,0.0,0.0
2024-02-07 00:00:00-05:00,130.26590766193826,131.267108845258,128.24366006025903,130.6525115966797,393000,0.0,0.0
2024-02-08 00:00:00-05:00,130.49390979357565,133.6660467963085,130.39477436732616,130.9697265625,620700,0.0,0.0
2024-02-09 00:00:00-05:00,130.9598295245484,137.9980218237225,130.36504717145576,137.7501983642578,650900,0.0,0.0
2024-02-12 00:00:00-05:00,137.94843452529844,139.2470268484113,136.31279084943992,136.41192626953125,491300,0.0,0.0
2024-02-13 00:00:00-05:00,135.49994444056586,136.13437183240478,133.80482548099658,134.74655151367188,275900,0.0,0.0
2024-02-14 00:00:00-05:00,135.07367289511177,136.26323742510704,133.99316640210938,135.9757537841797,335000,0.0,0.0
2024-02-15 00:00:00-05:00,135.97576415206808,136.61019155766678,133.39840943442317,133.8643035888672,471400,0.0,0.0
2024-02-16 00:00:00-05:00,134.19142649181865,136.79853382457387,133.8642977479947,136.30288696289062,453900,0.0,0.0
2024-02-20 00:00:00-05:00,135.94602900109788,138.91991035459364,135.75768076189232,138.4738311767578,373000,0.0,0.0
2024-02-21 00:00:00-05:00,137.86913947554837,138.8901708495271,137.77992666639122,138.7811279296875,276300,0.0,0.0
2024-02-22 00:00:00-05:00,139.24703328340902,141.180053056989,138.8505218366026,140.2383270263672,295700,0.0,0.0
2024-02-23 00:00:00-05:00,140.73396219891302,140.81326750687023,139.37589472425526,140.1292724609375,190300,0.0,0.0
2024-02-26 00:00:00-05:00,140.26806091989897,140.82318298112742,139.57415834336345,140.6844024658203,199200,0.0,0.0
2024-02-27 00:00:00-05:00,140.68439280321402,140.9421237065279,138.58285510834838,139.08840942382812,244600,0.0,0.0
2024-02-28 00:00:00-05:00,138.43415291770748,140.0103213254114,138.11694681348823,139.1875457763672,189600,0.0,0.0
2024-02-29 00:00:00-05:00,139.40565497538333,140.396948797008,138.6126168928949,139.2371368408203,250600,0.0,0.0
2024-03-01 00:00:00-05:00,138.6621693304686,139.5642351130347,138.3449480820494,139.06858825683594,151400,0.0,0.0
2024-03-04 00:00:00-05:00,139.46512794883685,140.88267083058346,139.33625491378967,140.7240753173828,260300,0.0,0.0
2024-03-05 00:00:00-05:00,141.03135139293929,141.9631698412631,140.50596697010832,141.2791748046875,190200,0.0,0.0
2024-03-06 00:00:00-05:00,141.68560621173435,142.38943141864434,141.2395270563974,141.82440185546875,184000,0.0,0.0
2024-03-07 00:00:00-05:00,143.24195224109585,143.87637965982492,142.58769471136006,143.39064025878906,250100,0.0,0.0
2024-03-08 00:00:00-05:00,143.45011379645075,143.80698012307482,141.7252573634442,141.84420776367188,185200,0.0,0.0
2024-03-11 00:00:00-04:00,141.54683652531014,142.13171136913695,140.74389095907273,141.49728393554688,226700,0.0,0.0
2024-03-12 00:00:00-04:00,141.5567547257704,141.60632243992973,140.24823967648902,141.17015075683594,242200,0.0,0.0
2024-03-13 00:00:00-04:00,141.7550071548542,141.7550071548542,139.70302181880368,139.9310302734375,336800,0.0,0.0
2024-03-14 00:00:00-04:00,140.12928235811054,140.3870132827191,139.13798862754268,139.70301818847656,235200,0.0,0.0
2024-03-15 00:00:00-04:00,138.82078168505194,141.17015835434754,138.52340563597713,139.77243041992188,599500,0.0,0.0
2024-03-18 00:00:00-04:00,139.70302038648921,140.06980935821068,137.72043289416052,138.0475616455078,299700,0.0,0.0
2024-03-19 00:00:00-04:00,137.67089007869433,139.09835559463502,137.67089007869433,138.29539489746094,253000,0.0,0.0
2024-03-20 00:00:00-04:00,138.41435230223198,138.85052397600484,137.92861291535908,138.7513885498047,220000,0.0,0.0
2024-03-21 00:00:00-04:00,139.08841825193014,140.3671956103983,138.08721704857123,139.91119384765625,255800,0.0,0.0
2024-03-22 00:00:00-04:00,140.77361081986902,141.20978246160044,139.8219773524016,140.35726928710938,276000,0.0,0.0
2024-03-25 00:00:00-04:00,139.9706758510705,142.79586911672604,139.9409382483535,141.71536254882812,316300,0.0,0.0
2024-03-26 00:00:00-04:00,141.58648848098767,143.05359899938549,141.3783101375535,141.95326232910156,314200,0.0,0.0
2024-03-27 00:00:00-04:00,142.41917220722638,143.8862827318502,142.41917220722638,143.4005584716797,218200,0.0,0.0
2024-03-28 00:00:00-04:00,143.55916383297742,144.08454829465626,142.39933686940833,142.6372528076172,247800,0.0,0.0
2024-04-01 00:00:00-04:00,142.53811857132533,142.53811857132533,140.88265985977688,141.05117797851562,204400,0.0,0.0
2024-04-02 00:00:00-04:00,140.60509657020089,140.60509657020089,139.16772371206562,139.4056396484375,202600,0.0,0.0
2024-04-03 00:00:00-04:00,139.44529455067843,139.96077155277405,138.65225649959498,139.65347290039062,258700,0.0,0.0
2024-04-04 00:00:00-04:00,140.59520497929628,141.50719348295237,139.7426916849742,140.51589965820312,403600,0.0,0.0
2024-04-05 00:00:00-04:00,140.14911948491763,141.51709461595203,139.72285529394162,140.49606323242188,288300,0.0,0.0
2024-04-08 00:00:00-04:00,140.43658653193245,141.14041176380232,139.16773171684926,139.28668212890625,312500,0.0,0.0
2024-04-09 00:00:00-04:00,139.19745233021874,139.8715398767991,138.1466834827859,139.08840942382812,242600,0.0,0.0
2024-04-10 00:00:00-04:00,137.76999877927764,138.99920845355638,137.2446143108546,138.18634033203125,200700,0.0,0.0
2024-04-11 00:00:00-04:00,138.04755907083242,138.8207669683444,137.24461357156548,137.918701171875,265300,0.0,0.0
2024-04-12 00:00:00-04:00,136.967049267021,137.74025714606825,134.776298651701,136.0054931640625,299200,0.0,0.0
2024-04-15 00:00:00-04:00,137.40322972923067,138.59277922513755,136.63002180059405,136.99679565429688,319600,0.0,0.0
2024-04-16 00:00:00-04:00,136.5903543367824,138.17643033118634,136.1641052997771,137.38339233398438,281700,0.0,0.0
2024-04-17 00:00:00-04:00,137.67086969395015,138.2656368202302,137.14548525906264,137.19503784179688,565400,0.0,0.0
2024-04-18 00:00:00-04:00,137.1851320847816,138.22599347635693,137.01661397390805,137.89886474609375,246600,0.0,0.0
2024-04-19 00:00:00-04:00,137.84930054424208,138.7018137377263,137.56183202448253,138.12686157226562,276600,0.0,0.0
2024-04-22 00:00:00-04:00,138.33502731615243,139.92108802823105,138.03763620578138,139.09832763671875,298800,0.0,0.0
2024-04-23 00:00:00-04:00,138.55312824028502,139.93102591361165,138.30530480892452,138.9298095703125,417200,0.0,0.0
2024-04-24 00:00:00-04:00,139.13860773601874,140.08309687938592,138.83040745274005,139.19825744628906,559200,0.41,0.0
2024-04-25 00:00:00-04:00,139.0292386706214,140.4310674806865,138.11457442322126,139.3672637939453,694400,0.0,0.0
2024-04-26 00:00:00-04:00,141.17671738557638,147.6489684748245,141.07729109393654,142.49900817871094,489500,0.0,0.0
2024-04-29 00:00:00-04:00,144.05989608090238,147.16181733326363,143.53297011620526,145.5313262939453,676700,0.0,0.0
2024-04-30 00:00:00-04:00,144.89503861467492,145.25295202466614,143.2247709779419,143.5429229736328,585100,0.0,0.0
2024-05-01 00:00:00-04:00,144.1493863720236,146.35651652986462,143.74175981802546,144.53712463378906,359600,0.0,0.0
2024-05-02 00:00:00-04:00,144.914913867979,145.8792912599076,144.44763759888693,145.07398986816406,356500,0.0,0.0
2024-05-03 00:00:00-04:00,146.25709550003984,146.2769837929879,144.00025211559725,145.95883178710938,303300,0.0,0.0
2024-05-06 00:00:00-04:00,146.9033104690389,148.21566464459445,146.30679825586762,148.17588806152344,260200,0.0,0.0
2024-05-07 00:00:00-04:00,147.46008217334202,149.50813634180696,147.46008217334202,148.85195922851562,392900,0.0,0.0
2024-05-08 00:00:00-04:00,148.8519676667531,149.99529422900792,148.6133536564871,149.91575622558594,223500,0.0,0.0
2024-05-09 00:00:00-04:00,150.12453415300365,150.8502975207552,147.76827976285352,148.21566772460938,299100,0.0,0.0
2024-05-10 00:00:00-04:00,148.08641386966042,148.1361270134608,147.23139937538733,147.62908935546875,186300,0.0,0.0
2024-05-13 00:00:00-04:00,147.66885717155736,148.6133462634333,146.00854125481663,147.01268005371094,167500,0.0,0.0
2024-05-14 00:00:00-04:00,147.44020100009575,147.45013756156888,146.61501128814115,147.04251098632812,137600,0.0,0.0
2024-05-15 00:00:00-04:00,147.102167082445,147.47995361006247,145.91906401390577,146.4261016845703,211100,0.0,0.0
2024-05-16 00:00:00-04:00,146.51557301812144,147.042498969268,145.58102052504745,146.68458557128906,235500,0.0,0.0
2024-05-17 00:00:00-04:00,146.99280706497723,147.31094389280457,146.27698023946283,146.8138427734375,169500,0.0,0.0
2024-05-20 00:00:00-04:00,146.73430448574354,147.54955760165925,146.1874902214491,147.31094360351562,163400,0.0,0.0
2024-05-21 00:00:00-04:00,147.08229020027764,147.817990190825,146.23721217995782,147.728515625,280400,0.0,0.0
2024-05-22 00:00:00-04:00,147.21152602409944,147.96711422959115,146.61499864007018,147.92733764648438,283300,0.0,0.0
2024-05-23 00:00:00-04:00,147.7981084397933,148.0864204140624,146.7044799091405,146.86355590820312,171700,0.0,0.0
2024-05-24 00:00:00-04:00,147.61913778568456,147.96711462234552,146.50563618088398,147.2313995361328,162300,0.0,0.0
2024-05-28 00:00:00-04:00,146.764117953418,146.92319393983948,144.97456620230014,145.85940551757812,318400,0.0,0.0
2024-05-29 00:00:00-04:00,144.8055455017125,145.84946085399403,143.67215559160385,144.000244140625,229700,0.0,0.0
2024-05-30 00:00:00-04:00,144.28857058679588,146.12783556029183,144.15931944589317,145.29270935058594,328100,0.0,0.0
2024-05-31 00:00:00-04:00,145.24301048494436,146.97292794967595,145.07399791424487,146.833740234375,358900,0.0,0.0
2024-06-03 00:00:00-04:00,147.6390352585539,147.6390352585539,145.43190503298203,147.30101013183594,266200,0.0,0.0
2024-06-04 00:00:00-04:00,146.79394812461462,147.52966321073654,145.84945907277913,147.33082580566406,287900,0.0,0.0
2024-06-05 00:00:00-04:00,146.86355577498975,147.34076860142255,146.2272669496386,147.06239318847656,229200,0.0,0.0
2024-06-06 00:00:00-04:00,147.1518720418501,147.1518720418501,144.5570035187933,145.11376953125,197600,0.0,0.0
2024-06-07 00:00:00-04:00,144.92485667565106,145.48160747169428,144.60670469487127,144.7061309814453,179100,0.0,0.0
2024-06-10 00:00:00-04:00,143.99030717125453,144.96462108446894,143.15518095992786,144.7458953857422,125800,0.0,0.0
2024-06-11 00:00:00-04:00,144.069842198694,144.8950318322786,143.51309140261802,144.6564178466797,147700,0.0,0.0
2024-06-12 00:00:00-04:00,145.39213888233263,145.4617251495329,143.234721873972,144.98451232910156,221300,0.0,0.0
2024-06-13 00:00:00-04:00,145.04416203536522,145.68045085271436,144.17921095389806,144.98451232910156,232400,0.0,0.0
2024-06-14 00:00:00-04:00,144.2487917043436,144.53711883402036,142.84696297947195,143.9107666015625,141500,0.0,0.0
2024-06-17 00:00:00-04:00,144.03007123818756,145.82957483514926,143.7318227074485,145.4816131591797,303800,0.0,0.0
2024-06-18 00:00:00-04:00,145.63074941518855,146.83374087939953,145.62081285345312,145.83953857421875,219900,0.0,0.0
2024-06-20 00:00:00-04:00,145.8097081220493,146.67465923985355,144.82544241638323,144.96463012695312,199900,0.0,0.0
2024-06-21 00:00:00-04:00,145.0242822893985,146.28692343756714,144.46753143769917,145.9986114501953,444100,0.0,0.0
2024-06-24 00:00:00-04:00,146.36644005855862,147.37057875723085,145.8196258482636,145.8693389892578,182900,0.0,0.0
2024-06-25 00:00:00-04:00,145.93894470307328,145.94889643479104,143.66222817714564,144.0201416015625,194500,0.0,0.0
2024-06-26 00:00:00-04:00,143.4136783501354,143.9505409043724,142.13116408870536,142.87681579589844,192400,0.0,0.0
2024-06-27 00:00:00-04:00,143.03587341308594,143.04582514463127,141.4451589090506,143.03587341308594,377300,0.0,0.0
2024-06-28 00:00:00-04:00,142.9463882562167,143.48326592890723,139.27777978400968,139.9936065673828,435100,0.0,0.0
2024-07-01 00:00:00-04:00,140.56031649992028,140.65972762098727,137.58764636312122,137.7367706298828,306400,0.0,0.0
2024-07-02 00:00:00-04:00,137.6771168664537,139.6854095648267,136.96129006644594,139.5859832763672,259400,0.0,0.0
2024-07-03 00:00:00-04:00,140.063219987868,140.58019424318394,139.75501971288125,140.4012451171875,143300,0.0,0.0
2024-07-05 00:00:00-04:00,140.17257383401406,140.61996179057115,138.91986935126823,140.0830841064453,207000,0.0,0.0
2024-07-08 00:00:00-04:00,140.8287476496575,141.67382566032194,140.67962337498633,140.68955993652344,249300,0.0,0.0
2024-07-09 00:00:00-04:00,140.0433415757156,140.45096817412028,138.93977637657352,139.22808837890625,238400,0.0,0.0
2024-07-10 00:00:00-04:00,139.93396267066512,140.808865480054,139.75501355255665,140.4708251953125,142000,0.0,0.0
2024-07-11 00:00:00-04:00,140.38135020760953,142.46918093443176,139.93396224338247,141.2661895751953,244500,0.0,0.0
2024-07-12 00:00:00-04:00,142.57854240098845,144.64648481567454,142.57854240098845,143.75169372558594,263900,0.0,0.0
2024-07-15 00:00:00-04:00,143.92070998156234,144.8453259480649,142.31010721643665,142.59841918945312,319900,0.0,0.0
2024-07-16 00:00:00-04:00,143.01598774998143,144.45757785765295,143.01598774998143,143.72186279296875,178800,0.0,0.0
2024-07-17 00:00:00-04:00,143.50315217288863,144.9248693091611,143.50315217288863,144.0201416015625,242300,0.0,0.0
2024-07-18 00:00:00-04:00,143.77158413178512,146.39627739473178,143.7616475708671,145.43190002441406,434200,0.0,0.0
2024-07-19 00:00:00-04:00,145.7401127614944,145.7401127614944,143.82130958785305,145.09388732910156,251200,0.0,0.0
2024-07-22 00:00:00-04:00,145.14359967477395,146.7044894018996,144.40788450924526,146.33663940429688,235700,0.0,0.0
2024-07-23 00:00:00-04:00,147.01267493335766,147.64896373659573,144.82543312037194,145.1932830810547,234500,0.0,0.0
2024-07-24 00:00:00-04:00,145.22312418531487,145.77987499600405,143.06569203841158,143.30430603027344,250600,0.0,0.0
2024-07-25 00:00:00-04:00,142.4466137172535,143.66334017802635,140.84093471363238,141.11021423339844,558100,0.45,0.0
2024-07-26 00:00:00-04:00,142.7458185274977,150.8839040725973,141.9679134034649,146.26634216308594,562800,0.0,0.0
2024-07-29 00:00:00-04:00,146.18654807363913,147.9518012557539,144.78032917910988,147.4032745361328,390900,0.0,0.0
2024-07-30 00:00:00-04:00,146.98440955393974,147.50300282044066,145.01969618270712,145.35877990722656,411000,0.0,0.0
2024-07-31 00:00:00-04:00,146.10677238813136,148.4504707285892,145.0197017612093,146.58547973632812,280600,0.0,0.0
2024-08-01 00:00:00-04:00,146.48575417142177,149.13860271713426,145.03963404176758,146.63534545898438,335300,0.0,0.0
2024-08-02 00:00:00-04:00,146.1865607027143,146.60543153811187,143.36415499050057,145.2989501953125,213500,0.0,0.0
2024-08-05 00:00:00-04:00,143.04500195071893,143.04500195071893,139.10560747243943,140.30238342285156,448500,0.0,0.0
2024-08-06 00:00:00-04:00,140.9506421425725,145.69785981497913,140.7312314517885,144.5409698486328,476000,0.0,0.0
2024-08-07 00:00:00-04:00,145.61807332642232,146.86471806655007,143.08489791032852,143.2145538330078,353600,0.0,0.0
2024-08-08 00:00:00-04:00,144.07225793334294,145.76769187651146,144.07225793334294,145.16929626464844,268600,0.0,0.0
2024-08-09 00:00:00-04:00,145.01970173177108,145.01970173177108,143.08490654350197,143.56361389160156,263200,0.0,0.0
2024-08-12 00:00:00-04:00,143.58356293459363,143.7929907393466,142.38678696822322,142.90538024902344,221100,0.0,0.0
2024-08-13 00:00:00-04:00,143.12479067928683,144.9099945543652,142.71590275055541,143.98248291015625,212000,0.0,0.0
2024-08-14 00:00:00-04:00,143.74314177678474,144.42130926648593,143.10486022619372,143.5137481689453,115700,0.0,0.0
2024-08-15 00:00:00-04:00,144.61078772865739,146.94450299558522,144.61078772865739,146.61538696289062,277500,0.0,0.0
2024-08-16 00:00:00-04:00,145.7178086429149,146.4458448984164,145.21915075490517,146.326171875,250600,0.0,0.0
2024-08-19 00:00:00-04:00,145.9272513224637,147.33345499792665,145.52831588225743,146.57550048828125,191200,0.0,0.0
2024-08-20 00:00:00-04:00,146.58547636304425,147.91190824245643,146.58547636304425,147.7124481201172,387200,0.0,0.0
2024-08-21 00:00:00-04:00,147.77227873284713,149.16852996911774,147.06419304414976,148.92916870117188,267300,0.0,0.0
2024-08-22 00:00:00-04:00,149.16853288609883,149.99629161604025,148.27093952712292,148.590087890625,200400,0.0,0.0
2024-08-23 00:00:00-04:00,149.25828872832403,150.1259486188488,149.03887803129888,150.03619384765625,221400,0.0,0.0
2024-08-26 00:00:00-04:00,150.27553600322852,152.26019990468,149.7369921722213,149.75694274902344,235500,0.0,0.0
2024-08-27 00:00:00-04:00,149.6073354575319,151.133227391442,149.4377936001898,150.7941436767578,208300,0.0,0.0
2024-08-28 00:00:00-04:00,150.5248764586845,151.56209348205394,150.5248764586845,151.13323974609375,249000,0.0,0.0
2024-08-29 00:00:00-04:00,152.14052586050624,152.49956015138338,150.8041263625091,151.87124633789062,187100,0.0,0.0
2024-08-30 00:00:00-04:00,151.79146048136437,153.0281375417213,151.23296607276166,152.77880859375,178500,0.0,0.0
2024-09-03 00:00:00-04:00,151.7017037750138,151.97098329637666,149.32808735093408,149.6372528076172,362400,0.0,0.0
2024-09-04 00:00:00-04:00,149.19845240971176,150.49495079841,149.19845240971176,150.32540893554688,175800,0.0,0.0
2024-09-05 00:00:00-04:00,150.67447925817638,151.35264672627906,149.54750748684052,150.31544494628906,200600,0.0,0.0
2024-09-06 00:00:00-04:00,149.9763613557829,152.70899702647708,149.9763613557829,151.9709930419922,319100,0.0,0.0
2024-09-09 00:00:00-04:00,152.16047510581276,152.64915009618142,151.03350341028641,151.5022430419922,241500,0.0,0.0
2024-09-10 00:00:00-04:00,151.46235157142956,152.37988031700135,151.03351306529763,151.1033172607422,158100,0.0,0.0
2024-09-11 00:00:00-04:00,150.38525079268496,150.4750207850162,148.23106011554742,150.43511962890625,178000,0.0,0.0
2024-09-12 00:00:00-04:00,150.4849887540154,151.60197764192228,149.56745999354442,151.5521240234375,200400,0.0,0.0
2024-09-13 00:00:00-04:00,151.78149156962914,152.5992825990635,151.492261470345,151.87124633789062,138600,0.0,0.0
2024-09-16 00:00:00-04:00,152.62921458132197,152.7588705145806,151.66183218445363,152.57936096191406,182900,0.0,0.0
2024-09-17 00:00:00-04:00,153.5866296991098,155.15242277397783,151.46234222382526,152.61923217773438,259900,0.0,0.0
2024-09-18 00:00:00-04:00,153.3472690170848,155.07263627515385,152.30009962123864,152.6591339111328,214200,0.0,0.0
2024-09-19 00:00:00-04:00,154.60390786200904,158.38372825071872,154.60390786200904,156.47885131835938,412400,0.0,0.0
2024-09-20 00:00:00-04:00,155.8904363617549,155.8904363617549,154.06534655021557,155.49151611328125,663300,0.0,0.0
2024-09-23 00:00:00-04:00,155.75080963595366,156.48882882047508,154.32465531926172,155.5413818359375,315800,0.0,0.0
2024-09-24 00:00:00-04:00,155.7607751810832,156.65836853663214,155.61118389740747,156.20957946777344,246200,0.0,0.0
2024-09-25 00:00:00-04:00,156.87777486028946,157.44623694025017,155.4516053850471,156.71820068359375,284100,0.0,0.0
2024-09-26 00:00:00-04:00,157.5160583780924,158.6330471936873,157.2766971099658,157.9548797607422,371600,0.0,0.0
2024-09-27 00:00:00-04:00,158.25407181382246,161.11637865217875,157.83520098285544,159.46083068847656,354300,0.0,0.0
2024-09-30 00:00:00-04:00,158.86243164794053,159.98940340400793,158.50339734091747,159.76002502441406,289800,0.0,0.0
2024-10-01 00:00:00-04:00,160.10908102182546,160.10908102182546,158.62309013398428,159.54061889648438,192200,0.0,0.0
2024-10-02 00:00:00-04:00,159.4309042020019,159.6802331516974,157.53601027144867,158.32388305664062,186900,0.0,0.0
2024-10-03 00:00:00-04:00,157.56593495409092,160.02930629497408,156.21955248369235,158.5133819580078,367000,0.0,0.0
2024-10-04 00:00:00-04:00,159.51069006003982,161.0365820029643,158.90232681876836,160.1489715576172,350500,0.0,0.0
2024-10-07 00:00:00-04:00,158.96217139030824,159.21150035071827,157.58587065913858,158.26405334472656,223300,0.0,0.0
2024-10-08 00:00:00-04:00,157.85514229856898,158.59316146287298,156.67831696887936,158.2440948486328,205900,0.0,0.0
2024-10-09 00:00:00-04:00,157.92496457453083,159.62039840768432,157.69557098143002,159.27133178710938,152600,0.0,0.0
2024-10-10 00:00:00-04:00,157.62577532209792,158.9522072471334,157.62577532209792,158.79263305664062,168500,0.0,0.0
2024-10-11 00:00:00-04:00,160.50801550631274,161.48538077936988,159.91960280646023,161.1163787841797,194400,0.0,0.0
2024-10-14 00:00:00-04:00,164.5471496015545,167.3097035833241,163.02125754964115,166.74124145507812,469700,0.0,0.0
2024-10-15 00:00:00-04:00,166.8708837749407,169.2045990501098,166.0431098506034,168.2272186279297,397300,0.0,0.0
2024-10-16 00:00:00-04:00,168.2471783490178,168.74583626660103,165.47464154468156,165.5943145751953,330000,0.0,0.0
2024-10-17 00:00:00-04:00,166.53178529804745,167.86820001373155,166.07302855953967,167.43934631347656,238200,0.0,0.0
2024-10-18 00:00:00-04:00,168.64610780732278,168.64610780732278,167.32964364723057,168.1773681640625,171500,0.0,0.0
2024-10-21 00:00:00-04:00,168.01780020340925,168.0377507811335,165.85362666420463,165.883544921875,217900,0.0,0.0
2024-10-22 00:00:00-04:00,165.27517443013002,165.92342360843475,164.3676134062384,165.36492919921875,228500,0.0,0.0
2024-10-23 00:00:00-04:00,166.06305748263202,167.52911300642305,165.71400606419698,167.1999969482422,318100,0.0,0.0
2024-10-24 00:00:00-04:00,168.32000732421875,168.3300018310547,166.14999389648438,166.5500030517578,547300,0.45,0.0
2024-10-25 00:00:00-04:00,168.9199981689453,169.85000610351562,164.61000061035156,168.91000366210938,518900,0.0,0.0
2024-10-28 00:00:00-04:00,169.89999389648438,171.41000366210938,168.75999450683594,169.10000610351562,350000,0.0,0.0
2024-10-29 00:00:00-04:00,169.02999877929688,169.49000549316406,167.63999938964844,168.6999969482422,338100,0.0,0.0
2024-10-30 00:00:00-04:00,168.35000610351562,170.1999969482422,168.1199951171875,169.02999877929688,290300,0.0,0.0
2024-10-31 00:00:00-04:00,169.08999633789062,170.27999877929688,167.86000061035156,167.91000366210938,329900,0.0,0.0
2024-11-01 00:00:00-04:00,168.10000610351562,170.99000549316406,167.6199951171875,169.41000366210938,316300,0.0,0.0
2024-11-04 00:00:00-05:00,169.6300048828125,170.57000732421875,168.17999267578125,168.25999450683594,191800,0.0,0.0
2024-11-05 00:00:00-05:00,167.74000549316406,170.36000061035156,167.74000549316406,170.30999755859375,206200,0.0,0.0
2024-11-06 00:00:00-05:00,175.14999389648438,175.14999389648438,172.13999938964844,173.16000366210938,264100,0.0,0.0
2024-11-07 00:00:00-05:00,174.1999969482422,175.4600067138672,173.5399932861328,174.7100067138672,412300,0.0,0.0
2024-11-08 00:00:00-05:00,174.6999969482422,177.83999633789062,174.49000549316406,175.75999450683594,309200,0.0,0.0
2024-11-11 00:00:00-05:00,176.32000732421875,178.02999877929688,175.89999389648438,176.14999389648438,189100,0.0,0.0
2024-11-12 00:00:00-05:00,176.64999389648438,177.24000549316406,174.9499969482422,175.6999969482422,179800,0.0,0.0
2024-11-13 00:00:00-05:00,175.5,176.38999938964844,175.0500030517578,175.5,168400,0.0,0.0
2024-11-14 00:00:00-05:00,175.14999389648438,175.7899932861328,173.91000366210938,174.10000610351562,198200,0.0,0.0
2024-11-15 00:00:00-05:00,172.97000122070312,173.75999450683594,166.1699981689453,166.49000549316406,620500,0.0,0.0
2024-11-18 00:00:00-05:00,166.38999938964844,167.82000732421875,164.3300018310547,166.69000244140625,384400,0.0,0.0
2024-11-19 00:00:00-05:00,166.4199981689453,167.6699981689453,166.1999969482422,166.89999389648438,287600,0.0,0.0
2024-11-20 00:00:00-05:00,167.0,168.94000244140625,165.64999389648438,168.72999572753906,221800,0.0,0.0
2024-11-21 00:00:00-05:00,168.69000244140625,170.22999572753906,167.74000549316406,169.8800048828125,205100,0.0,0.0
2024-11-22 00:00:00-05:00,170.17999267578125,172.07000732421875,170.17999267578125,171.50999450683594,241600,0.0,0.0
2024-11-25 00:00:00-05:00,172.0500030517578,174.02000427246094,171.74000549316406,172.5,270100,0.0,0.0
2024-11-26 00:00:00-05:00,172.86000061035156,172.86000061035156,171.16000366210938,172.0399932861328,140300,0.0,0.0
2024-11-27 00:00:00-05:00,172.6699981689453,173.8800048828125,171.52000427246094,171.72999572753906,167200,0.0,0.0
2024-11-29 00:00:00-05:00,172.58999633789062,173.49000549316406,172.08999633789062,172.9600067138672,117300,0.0,0.0
2024-12-02 00:00:00-05:00,172.97999572753906,173.11000061035156,170.8350067138672,172.75999450683594,170859,0.0,0.0
