Date,Open,High,Low,Close,Volume,Dividends,Stock Splits
2022-01-03 00:00:00-05:00,117.74180083762108,118.28031047253434,114.712669467947,116.1839599609375,234900,0.0,0.0
2022-01-04 00:00:00-05:00,116.35701890170282,118.20334339124996,115.35692463570443,116.7224349975586,337300,0.0,0.0
2022-01-05 00:00:00-05:00,116.5878188775357,119.37654255454909,116.5878188775357,118.33798217773438,367600,0.0,0.0
2022-01-06 00:00:00-05:00,118.79958246087895,119.24193067815884,117.32829207072908,117.84757232666016,231900,0.0,0.0
2022-01-07 00:00:00-05:00,118.01103412219994,119.03997617924534,117.28981284847721,118.93419647216797,335100,0.0,0.0
2022-01-10 00:00:00-05:00,118.23220465513087,119.13613766682059,117.01093985853582,117.36674499511719,398400,0.0,0.0
2022-01-11 00:00:00-05:00,117.58792917596529,118.26107351289453,116.09740943629072,117.81871795654297,135500,0.0,0.0
2022-01-12 00:00:00-05:00,117.62638077094364,118.28028834959407,115.99161549263863,116.64552307128906,206600,0.0,0.0
2022-01-13 00:00:00-05:00,117.0013198852539,117.63599811947786,115.75120742901723,117.0013198852539,193200,0.0,0.0
2022-01-14 00:00:00-05:00,116.62628221489045,116.8282232829733,115.27039009015085,116.53012084960938,179000,0.0,0.0
2022-01-18 00:00:00-05:00,115.98199419071385,116.74168145654316,114.27029692651394,115.75120544433594,232500,0.0,0.0
2022-01-19 00:00:00-05:00,116.12623156369241,117.22248720101378,115.87620616004186,116.76090240478516,252600,0.0,0.0
2022-01-20 00:00:00-05:00,116.18394023513841,117.61676446284861,114.25106514278475,114.27030181884766,297700,0.0,0.0
2022-01-21 00:00:00-05:00,114.64533501625944,115.46271766037235,111.38541544108945,111.914306640625,351800,0.0,0.0
2022-01-24 00:00:00-05:00,111.15461293101922,112.75091944863918,109.65447511379894,112.53936004638672,329300,0.0,0.0
2022-01-25 00:00:00-05:00,110.31801265760417,112.45282890725068,108.76017198813827,111.57774353027344,470000,0.0,0.0
2022-01-26 00:00:00-05:00,111.33732330039199,113.03940949838646,110.01989722602293,110.76996612548828,1542500,0.0,0.0
2022-01-27 00:00:00-05:00,111.33734377136625,113.76065163927466,108.34667862423734,109.28907775878906,263900,0.0,0.0
2022-01-28 00:00:00-05:00,109.46215768903576,110.68342247487148,108.13510586030733,110.63534545898438,323100,0.0,0.0
2022-01-31 00:00:00-05:00,110.59688137311167,112.8374699091923,109.84681241508412,112.79901123046875,486300,0.0,0.0
2022-02-01 00:00:00-05:00,112.59705750622794,114.36645744640926,111.98161596268015,112.97209930419922,214000,0.0,0.0
2022-02-02 00:00:00-05:00,112.58619226141757,112.89491161109375,111.9205205339454,112.50901794433594,363600,0.38,0.0
2022-02-03 00:00:00-05:00,112.33535342802907,113.24221230138735,110.85928893118009,111.1294174194336,167700,0.0,0.0
2022-02-04 00:00:00-05:00,110.6374119108362,111.93982154514796,109.65337120237525,111.19696807861328,242700,0.0,0.0
2022-02-07 00:00:00-05:00,111.54426568873583,111.9398088933551,110.2997387778026,110.69528198242188,263300,0.0,0.0
2022-02-08 00:00:00-05:00,110.9461323342607,112.33537321622518,110.69529553936142,111.95912170410156,204200,0.0,0.0
2022-02-09 00:00:00-05:00,112.95279826192224,113.51235436706477,112.10381455468539,112.44148254394531,295900,0.0,0.0
2022-02-10 00:00:00-05:00,111.44778765062294,113.1168064556886,109.6533615010634,110.56986999511719,267100,0.0,0.0
2022-02-11 00:00:00-05:00,110.98471695484109,112.33536691876199,108.8912135590113,109.70159912109375,230600,0.0,0.0
2022-02-14 00:00:00-05:00,109.70158364505593,110.47338561854389,108.4763559246266,110.07783508300781,266600,0.0,0.0
2022-02-15 00:00:00-05:00,110.61809940862902,112.03627394220578,109.40251387654268,110.07783508300781,263000,0.0,0.0
2022-02-16 00:00:00-05:00,110.22255845732707,111.02330178636964,109.11309578413493,110.65669250488281,271400,0.0,0.0
2022-02-17 00:00:00-05:00,109.94278501710231,112.16171045663877,109.32534630288262,111.53462219238281,362400,0.0,0.0
2022-02-18 00:00:00-05:00,112.18100090372779,117.23628307832412,110.38656736106135,114.26486206054688,462300,0.0,0.0
2022-02-22 00:00:00-05:00,114.32274059257527,115.94351898147028,113.18433663656033,114.9015884399414,437200,0.0,0.0
2022-02-23 00:00:00-05:00,115.51902869806428,116.06893526461693,113.45446668606313,113.54129791259766,321100,0.0,0.0
2022-02-24 00:00:00-05:00,112.17136594881919,113.20364711161743,110.6760093756643,112.7502212524414,349300,0.0,0.0
2022-02-25 00:00:00-05:00,113.02997495037894,117.31345469342202,112.70195652511408,116.7056655883789,260100,0.0,0.0
2022-02-28 00:00:00-05:00,115.25854673635703,117.72830144663827,115.07524209879878,117.58358764648438,316300,0.0,0.0
2022-03-01 00:00:00-05:00,117.66077078485135,118.60622791189415,114.35168188087611,114.9015884399414,325700,0.0,0.0
2022-03-02 00:00:00-05:00,114.89194871424273,115.82775637171864,113.84037589366487,114.20697784423828,435100,0.0,0.0
2022-03-03 00:00:00-05:00,114.68934795342238,115.52868215621915,113.27117323624519,115.12348937988281,196100,0.0,0.0
2022-03-04 00:00:00-05:00,113.88860125894627,116.14610996698565,113.54129109456338,115.95316314697266,206700,0.0,0.0
2022-03-07 00:00:00-05:00,115.10417907614203,116.10751872973158,112.34499686888307,112.41252899169922,337300,0.0,0.0
2022-03-08 00:00:00-05:00,112.83703396810192,114.12015181149354,106.1609731390954,106.3056869506836,382800,0.0,0.0
2022-03-09 00:00:00-05:00,107.26078552328468,110.3479791318333,107.26078552328468,109.27710723876953,224800,0.0,0.0
2022-03-10 00:00:00-05:00,107.88786157322576,109.65335366832427,107.51161012482108,108.30270385742188,223200,0.0,0.0
2022-03-11 00:00:00-05:00,109.3060421363036,109.7112348663597,108.2834034017749,108.34129333496094,237100,0.0,0.0
2022-03-14 00:00:00-04:00,108.84296968399359,111.82404758724115,108.79472929522117,110.48303985595703,173800,0.0,0.0
2022-03-15 00:00:00-04:00,111.03294489917319,112.80808666313702,110.06819602062433,112.69231414794922,199500,0.0,0.0
2022-03-16 00:00:00-04:00,113.57025205556768,114.91125256017604,110.32869486675092,112.86598205566406,266800,0.0,0.0
2022-03-17 00:00:00-04:00,113.10714682263502,114.3323819158455,111.20659051616228,114.23590850830078,163300,0.0,0.0
2022-03-18 00:00:00-04:00,113.93683347735454,114.64110335027142,112.17134138097809,113.58952331542969,286800,0.0,0.0
2022-03-21 00:00:00-04:00,113.57989501513207,114.48675400620311,112.5572561419963,114.47711181640625,309100,0.0,0.0
2022-03-22 00:00:00-04:00,115.55762397532759,116.21365353259448,113.22293336522634,113.52200317382812,294100,0.0,0.0
2022-03-23 00:00:00-04:00,113.64743080624775,113.9368510789301,110.01997264378194,110.62776184082031,256800,0.0,0.0
2022-03-24 00:00:00-04:00,110.9461239612976,112.12311880186336,109.98137505728631,111.76615905761719,210100,0.0,0.0
2022-03-25 00:00:00-04:00,112.73088816973151,113.12643868394628,111.91085321738353,113.10713958740234,148000,0.0,0.0
2022-03-28 00:00:00-04:00,113.29044927535443,113.42551351541513,110.9557589995062,112.38358306884766,167300,0.0,0.0
2022-03-29 00:00:00-04:00,113.36763753239296,115.3743095129612,113.36763753239296,115.11383056640625,184700,0.0,0.0
2022-03-30 00:00:00-04:00,115.35503143768635,115.35503143768635,114.07191357011864,114.6314697265625,156600,0.0,0.0
2022-03-31 00:00:00-04:00,114.22627723671773,115.60586853065786,113.32906041813499,113.35800170898438,211200,0.0,0.0
2022-04-01 00:00:00-04:00,113.98507508882619,115.42254877643136,113.15539051090524,114.82440185546875,400800,0.0,0.0
2022-04-04 00:00:00-04:00,114.53497827982419,114.53497827982419,111.13905839483604,114.23590850830078,286300,0.0,0.0
2022-04-05 00:00:00-04:00,113.50271333845193,115.00771931724746,113.44482339741732,113.57989501953125,225300,0.0,0.0
2022-04-06 00:00:00-04:00,113.12644996455074,114.7279291963019,112.24852499547583,114.16837310791016,194300,0.0,0.0
2022-04-07 00:00:00-04:00,113.75355279029463,116.34872247352759,112.51866794540692,115.7698745727539,331900,0.0,0.0
2022-04-08 00:00:00-04:00,115.58655347427758,117.921251206669,115.58655347427758,117.13015747070312,305300,0.0,0.0
2022-04-11 00:00:00-04:00,116.86003632903035,117.98879818158056,114.76653289794922,114.76653289794922,208000,0.0,0.0
2022-04-12 00:00:00-04:00,115.02701286874412,115.9531709156666,112.29677175598678,112.88526916503906,187400,0.0,0.0
2022-04-13 00:00:00-04:00,112.76950236140587,113.840374267504,112.76950236140587,113.72460174560547,120200,0.0,0.0
2022-04-14 00:00:00-04:00,113.28081212481268,114.51568951791987,112.8370285216929,113.26152038574219,163300,0.0,0.0
2022-04-18 00:00:00-04:00,112.66337132113506,113.39658251974802,109.57617789610633,109.99102020263672,137100,0.0,0.0
2022-04-19 00:00:00-04:00,110.53127580915148,113.49305449385507,109.50864438017327,113.0975112915039,221600,0.0,0.0
2022-04-20 00:00:00-04:00,113.82108332208605,115.5286857094226,113.19399503821207,115.2874984741211,141200,0.0,0.0
2022-04-21 00:00:00-04:00,116.01104916745051,116.10752258032313,114.16837533165025,114.74723052978516,178200,0.0,0.0
2022-04-22 00:00:00-04:00,114.41921662031676,114.41921662031676,112.32571330031105,112.50901794433594,179900,0.0,0.0
2022-04-25 00:00:00-04:00,112.39323822770886,112.39323822770886,108.22552359385472,111.33201599121094,379600,0.0,0.0
2022-04-26 00:00:00-04:00,110.70288050982847,111.65145397595214,106.89889044478087,107.0344009399414,295300,0.38,0.0
2022-04-27 00:00:00-04:00,107.38283852431339,109.36710319504371,107.02469949136398,107.53770446777344,231500,0.0,0.0
2022-04-28 00:00:00-04:00,107.61515379357023,108.6411638671065,106.03742034665365,108.50565338134766,289200,0.0,0.0
2022-04-29 00:00:00-04:00,108.91217939267737,112.71616900359386,108.91217939267737,111.14811706542969,640200,0.0,0.0
2022-05-02 00:00:00-04:00,111.71919707057698,113.21950116992255,108.47661220093725,109.75428771972656,457000,0.0,0.0
2022-05-03 00:00:00-04:00,109.3671131331046,111.67080609882824,109.0283369277827,110.18018341064453,225400,0.0,0.0
2022-05-04 00:00:00-04:00,109.72525045590284,113.03559055493056,109.10577186607662,113.00655364990234,346900,0.0,0.0
2022-05-05 00:00:00-04:00,111.78694796757823,112.4548262985309,108.28302370319936,109.1832046508789,179000,0.0,0.0
2022-05-06 00:00:00-04:00,108.10880877617936,108.13784568390282,106.24069140336726,107.66355895996094,331800,0.0,0.0
2022-05-09 00:00:00-04:00,106.47298466456795,107.53771303426016,103.2400812203503,103.578857421875,276700,0.0,0.0
2022-05-10 00:00:00-04:00,104.11121333570745,105.14690475468782,100.60728908436653,101.18804931640625,411800,0.0,0.0
2022-05-11 00:00:00-04:00,101.04287046057055,103.97571628816179,100.19108916923369,100.72344970703125,297800,0.0,0.0
2022-05-12 00:00:00-04:00,100.39434997670615,103.24008494162238,99.93941875336048,103.03681182861328,389300,0.0,0.0
2022-05-13 00:00:00-04:00,103.56917850987446,104.8178171556516,103.33687587814796,104.06282806396484,226900,0.0,0.0
2022-05-16 00:00:00-04:00,103.84988982436022,104.94365521971778,102.94002731022408,104.8565444946289,202500,0.0,0.0
2022-05-17 00:00:00-04:00,106.5988151067139,106.850480596032,104.75006073439316,105.4663314819336,311200,0.0,0.0
2022-05-18 00:00:00-04:00,104.52742413508254,105.40824958776734,100.24914806858547,100.73311614990234,325900,0.0,0.0
2022-05-19 00:00:00-04:00,100.07492264013938,101.24612455026691,98.98115739797906,100.17171478271484,357000,0.0,0.0
2022-05-20 00:00:00-04:00,101.61395273707559,101.92369204766783,94.0737283177563,96.5226058959961,796300,0.0,0.0
2022-05-23 00:00:00-04:00,97.71315567249178,101.23644282217688,96.47419852773663,100.87831115722656,545200,0.0,0.0
2022-05-24 00:00:00-04:00,101.1493467653329,102.23343811645397,99.52321343103539,101.58491516113281,567400,0.0,0.0
2022-05-25 00:00:00-04:00,100.16203738545198,101.89463661843538,99.19410122255911,101.1009292602539,493400,0.0,0.0
2022-05-26 00:00:00-04:00,102.31085373264554,103.52077398674385,101.90432229961264,103.11424255371094,188200,0.0,0.0
2022-05-27 00:00:00-04:00,103.5304576215943,105.43729316422942,103.5304576215943,105.39857482910156,178000,0.0,0.0
2022-05-31 00:00:00-04:00,104.61455033929464,105.92126278319036,102.94001739883464,103.65628814697266,306100,0.0,0.0
2022-06-01 00:00:00-04:00,104.04345984632769,104.45967270682254,102.24309792742133,103.8111572265625,313900,0.0,0.0
2022-06-02 00:00:00-04:00,104.14994005394632,106.5020254601185,103.40463238336682,106.30844116210938,145400,0.0,0.0
2022-06-03 00:00:00-04:00,105.23402573334636,106.24068027601083,104.7694131041292,105.31146240234375,139800,0.0,0.0
2022-06-06 00:00:00-04:00,106.07613458918318,107.25701804580146,104.85654017951946,105.74703979492188,207400,0.0,0.0
2022-06-07 00:00:00-04:00,105.15658655628557,106.80207511701438,104.9242839396012,106.64720916748047,132900,0.0,0.0
2022-06-08 00:00:00-04:00,105.46632124059524,105.88253407741863,103.82083275162834,104.25640106201172,157700,0.0,0.0
2022-06-09 00:00:00-04:00,103.34653860639801,104.24671951362531,102.40764675209503,102.43668365478516,193800,0.0,0.0
2022-06-10 00:00:00-04:00,100.25882955065124,102.49475972438518,99.82325384637697,101.8268814086914,266800,0.0,0.0
2022-06-13 00:00:00-04:00,99.57160730615706,99.92006495607282,97.80996358036855,98.73918151855469,252100,0.0,0.0
2022-06-14 00:00:00-04:00,98.35200835280136,99.00052390356062,95.23525227512881,96.32901763916016,227900,0.0,0.0
2022-06-15 00:00:00-04:00,97.08400104994075,97.99385603039566,95.38043131870631,97.1517562866211,283300,0.0,0.0
2022-06-16 00:00:00-04:00,95.71920767978209,95.71920767978209,91.0150372821958,91.73130798339844,620400,0.0,0.0
2022-06-17 00:00:00-04:00,91.46028927341104,95.30299716070294,91.4506152284642,94.373779296875,458500,0.0,0.0
2022-06-21 00:00:00-04:00,94.83840102467667,95.53530895086821,93.97693093185286,94.07373046875,236100,0.0,0.0
2022-06-22 00:00:00-04:00,93.28002567222966,95.6708221757161,93.15418922457327,95.30300903320312,228200,0.0,0.0
2022-06-23 00:00:00-04:00,95.45786908712122,96.13542146174841,94.054357190012,95.75792694091797,152100,0.0,0.0
2022-06-24 00:00:00-04:00,96.84202450103547,99.35865726718576,96.47420400079217,99.32962036132812,327300,0.0,0.0
2022-06-27 00:00:00-04:00,99.32962424953357,100.81056558438327,98.7198196635829,100.24916076660156,185200,0.0,0.0
2022-06-28 00:00:00-04:00,100.87831059683016,101.02350250184239,98.71013560555323,99.40704345703125,280200,0.0,0.0
2022-06-29 00:00:00-04:00,99.19411013638518,100.55889640862841,98.0906560175427,100.0749282836914,220900,0.0,0.0
2022-06-30 00:00:00-04:00,99.04890702629211,100.18139053829404,98.11968921761617,99.90068817138672,205900,0.0,0.0
2022-07-01 00:00:00-04:00,100.02652036392473,101.31387724366627,98.88436277154985,101.1396484375,262300,0.0,0.0
2022-07-05 00:00:00-04:00,100.02654188290043,100.02654188290043,97.73253739042394,99.62001037597656,230200,0.0,0.0
2022-07-06 00:00:00-04:00,100.21043880719826,100.22980166767316,98.25521083098359,99.3489761352539,286400,0.0,0.0
2022-07-07 00:00:00-04:00,99.16507539999627,99.98782719947332,98.58431507107055,99.80391693115234,221200,0.0,0.0
2022-07-08 00:00:00-04:00,99.4360943652147,99.7264708098022,96.79362514934,96.80330657958984,208100,0.0,0.0
2022-07-11 00:00:00-04:00,96.6097208680465,96.90978614619273,95.31268975558885,96.35806274414062,186900,0.0,0.0
2022-07-12 00:00:00-04:00,96.28062260791725,98.58430828754024,96.03863853878497,97.28727722167969,284300,0.0,0.0
2022-07-13 00:00:00-04:00,96.53228363572835,98.06161726937513,96.3193364831938,97.442138671875,202500,0.0,0.0
2022-07-14 00:00:00-04:00,96.38709457973852,96.70651531800402,95.18684829985015,96.11607360839844,199800,0.0,0.0
2022-07-15 00:00:00-04:00,97.57765114992404,97.57765114992404,96.02895462448811,96.80330657958984,195300,0.0,0.0
2022-07-18 00:00:00-04:00,97.34534777182543,97.71316088605988,94.56736809279695,94.95454406738281,179900,0.0,0.0
2022-07-19 00:00:00-04:00,95.3901182964889,97.84866981889978,95.3901182964889,97.79059600830078,635400,0.0,0.0
2022-07-20 00:00:00-04:00,97.44211655505497,99.19408575840411,97.43244251196634,98.55524444580078,458900,0.0,0.0
2022-07-21 00:00:00-04:00,98.64238869329247,100.27819596584278,98.32296795225979,100.16204833984375,138900,0.0,0.0
2022-07-22 00:00:00-04:00,100.28787967282975,100.64601875891454,99.04892240226421,100.2781982421875,214600,0.0,0.0
2022-07-25 00:00:00-04:00,100.3943444846472,101.15901497368696,99.61031852078179,100.58792877197266,267400,0.0,0.0
2022-07-26 00:00:00-04:00,100.17018647153793,100.91822940492801,98.97525227606391,100.86965942382812,262200,0.38,0.0
2022-07-27 00:00:00-04:00,101.26796963540217,103.50239638118107,100.68507795750718,103.0069351196289,229200,0.0,0.0
2022-07-28 00:00:00-04:00,103.05551488676709,104.74590301513672,102.15203017107694,104.74590301513672,249800,0.0,0.0
2022-07-29 00:00:00-04:00,104.11443230820349,106.3682855815893,103.35667238009782,104.68761444091797,424400,0.0,0.0
2022-08-01 00:00:00-04:00,103.26924406560903,105.5522408578072,102.59891454085113,105.11506652832031,277000,0.0,0.0
2022-08-02 00:00:00-04:00,104.78478216564575,104.95965044546091,102.81266109498506,103.55098724365234,209700,0.0,0.0
2022-08-03 00:00:00-04:00,104.26988579135482,105.71740190459558,103.40526142603437,104.571044921875,260700,0.0,0.0
2022-08-04 00:00:00-04:00,104.14358424401739,104.16301816839783,102.84179296160565,103.40525817871094,292600,0.0,0.0
2022-08-05 00:00:00-04:00,102.65720574797297,103.62869441577672,102.09374054179791,102.63777923583984,174600,0.0,0.0
2022-08-08 00:00:00-04:00,103.10409705994307,104.92078366764714,102.98752315502082,104.21159362792969,219300,0.0,0.0
2022-08-09 00:00:00-04:00,104.68762844593176,104.92078366764714,103.45383359845157,104.21159362792969,249200,0.0,0.0
2022-08-10 00:00:00-04:00,106.11570722319111,107.58264973048398,104.96935033351734,106.64030456542969,152900,0.0,0.0
2022-08-11 00:00:00-04:00,107.48550863591778,108.11697777012454,106.42658951592706,106.50430297851562,171100,0.0,0.0
2022-08-12 00:00:00-04:00,107.36893275969733,107.98097541220875,106.99976970513382,107.91297149658203,201300,0.0,0.0
2022-08-15 00:00:00-04:00,107.5243650053825,109.22447015753816,107.5243650053825,108.71929931640625,146500,0.0,0.0
2022-08-16 00:00:00-04:00,107.99068215173514,109.05931818693435,107.55350781106033,108.8747329711914,187700,0.0,0.0
2022-08-17 00:00:00-04:00,107.83523641022244,108.29183724578654,106.91232518947753,107.8643798828125,173100,0.0,0.0
2022-08-18 00:00:00-04:00,107.77694946504232,107.97124422355601,106.83460432132408,107.8643798828125,197300,0.0,0.0
2022-08-19 00:00:00-04:00,108.00039377781847,108.08783161238236,106.42658687437222,107.01919555664062,253400,0.0,0.0
2022-08-22 00:00:00-04:00,106.05743200087541,106.19343984182842,104.6779196644254,104.84307098388672,178300,0.0,0.0
2022-08-23 00:00:00-04:00,104.80419418538122,105.34823287615794,102.98751513108857,103.84242248535156,178000,0.0,0.0
2022-08-24 00:00:00-04:00,104.30874588649061,104.9887850215165,103.67727674004047,104.38645935058594,183000,0.0,0.0
2022-08-25 00:00:00-04:00,104.4738919450044,105.86312103271484,104.4738919450044,105.86312103271484,132900,0.0,0.0
2022-08-26 00:00:00-04:00,106.4265711666074,106.4265711666074,101.199958144362,101.43312072753906,152000,0.0,0.0
2022-08-29 00:00:00-04:00,101.00569233715157,101.49143674011037,99.85933524969397,101.03483581542969,146800,0.0,0.0
2022-08-30 00:00:00-04:00,101.46227689185052,101.68571513051394,99.79131522936676,101.0833969116211,148900,0.0,0.0
2022-08-31 00:00:00-04:00,101.40397517538882,101.7731455788876,99.8204514603972,99.87873840332031,180300,0.0,0.0
2022-09-01 00:00:00-04:00,99.44158657615682,99.93704790169005,98.44095437437831,99.69417572021484,212200,0.0,0.0
2022-09-02 00:00:00-04:00,100.39363302482401,101.20968734086333,97.84833751831246,98.53809356689453,206000,0.0,0.0
2022-09-06 00:00:00-04:00,98.37295198868806,98.97527026450888,96.96428886711976,97.46946716308594,159300,0.0,0.0
2022-09-07 00:00:00-04:00,97.77060946228816,100.67535822227032,97.75118295203718,100.29647827148438,164200,0.0,0.0
2022-09-08 00:00:00-04:00,99.34442464384222,102.02572779829069,99.21812638436543,101.8994369506836,137900,0.0,0.0
2022-09-09 00:00:00-04:00,102.6669238946982,103.77442039582478,101.69543521568397,103.37611389160156,197100,0.0,0.0
2022-09-12 00:00:00-04:00,104.12415625437588,105.1830753501033,103.69669886651582,104.05615234375,154500,0.0,0.0
2022-09-13 00:00:00-04:00,102.16175657580861,102.73493135855082,101.0153995984535,101.05425262451172,271700,0.0,0.0
2022-09-14 00:00:00-04:00,100.85023113937737,101.3359754487463,99.52900602494431,100.62679290771484,250700,0.0,0.0
2022-09-15 00:00:00-04:00,100.30619982965854,102.39490184117311,100.27705635701157,102.20059967041016,423000,0.0,0.0
2022-09-16 00:00:00-04:00,101.35541068808473,101.35541068808473,98.50894870174065,99.71359252929688,579400,0.0,0.0
2022-09-19 00:00:00-04:00,98.94612310922372,101.56914705951068,98.93640614685118,101.54971313476562,194400,0.0,0.0
2022-09-20 00:00:00-04:00,100.50048753941586,100.50048753941586,97.81918447778406,98.29521179199219,157500,0.0,0.0
2022-09-21 00:00:00-04:00,98.8878363137289,99.36386370454039,96.78941715021021,96.82827758789062,173500,0.0,0.0
2022-09-22 00:00:00-04:00,96.31338680758618,96.31338680758618,94.49670031402535,95.32247161865234,199200,0.0,0.0
2022-09-23 00:00:00-04:00,94.16640160573118,95.50705336649696,94.16640160573118,95.28361511230469,274900,0.0,0.0
2022-09-26 00:00:00-04:00,94.72015137545267,95.64306270615747,93.68065872862766,94.63272094726562,364000,0.0,0.0
2022-09-27 00:00:00-04:00,95.19616312132523,95.98307390493453,92.51485999840864,93.3211898803711,238600,0.0,0.0
2022-09-28 00:00:00-04:00,93.99153266493809,95.69163790693955,93.31149353288576,95.43904876708984,237000,0.0,0.0
2022-09-29 00:00:00-04:00,94.4481378262551,94.48699826582995,93.5252190630624,94.0109634399414,206400,0.0,0.0
2022-09-30 00:00:00-04:00,93.37949074175435,94.97273151834811,92.16512994179752,92.32056427001953,471500,0.0,0.0
2022-10-03 00:00:00-04:00,93.70979545491807,95.22531539596609,92.93260897237536,94.66185760498047,274200,0.0,0.0
2022-10-04 00:00:00-04:00,96.26481026562976,96.98371722927573,95.70135246119517,96.40082550048828,262900,0.0,0.0
2022-10-05 00:00:00-04:00,95.29332235631225,96.6436984587531,94.26354671334018,95.3807601928711,201300,0.0,0.0
2022-10-06 00:00:00-04:00,94.87559463869054,95.4001920398949,93.57379586286571,94.95330810546875,202100,0.0,0.0
2022-10-07 00:00:00-04:00,94.166395144661,94.166395144661,90.9313361611855,91.30050659179688,119000,0.0,0.0
2022-10-10 00:00:00-04:00,91.69881646610763,92.74802602569372,91.23250604753856,91.67938995361328,177300,0.0,0.0
2022-10-11 00:00:00-04:00,91.12563176369157,92.92288415421791,90.63988747371852,92.03882598876953,369800,0.0,0.0
2022-10-12 00:00:00-04:00,92.05826967741172,92.05826967741172,90.61074620317915,90.70790100097656,147400,0.0,0.0
2022-10-13 00:00:00-04:00,88.47346710448346,92.3205610971036,87.6574202326564,91.86396026611328,237000,0.0,0.0
2022-10-14 00:00:00-04:00,92.6800243448799,93.18519521246711,91.42680302052216,92.36914825439453,319300,0.0,0.0
2022-10-17 00:00:00-04:00,93.28234217552959,94.59385785653218,93.28234217552959,94.54528045654297,344900,0.0,0.0
2022-10-18 00:00:00-04:00,96.42025837888582,97.12944842717792,95.30304483469078,96.44940185546875,281300,0.0,0.0
2022-10-19 00:00:00-04:00,95.89564883070547,96.38139318143047,94.80757881680805,95.40990447998047,359500,0.0,0.0
2022-10-20 00:00:00-04:00,95.28361168402189,95.88592992310433,92.70916519503372,93.33091735839844,185600,0.0,0.0
2022-10-21 00:00:00-04:00,92.83544626235462,95.12815990235946,91.83481421161524,94.73956298828125,176400,0.0,0.0
2022-10-24 00:00:00-04:00,95.10873887329721,95.98308012739575,94.49669628949319,95.0990219116211,158500,0.0,0.0
2022-10-25 00:00:00-04:00,94.08473830554523,96.97155011982244,93.59710102392906,96.75698852539062,292500,0.38,0.0
2022-10-26 00:00:00-04:00,97.38117205813707,98.55150609951095,96.51317821718118,96.63996124267578,271900,0.0,0.0
2022-10-27 00:00:00-04:00,96.6594709024473,98.15163992250055,96.42540707047455,96.63996124267578,216700,0.0,0.0
2022-10-28 00:00:00-04:00,99.42924146767989,101.54559298281465,96.76674600397702,98.6295166015625,445300,0.0,0.0
2022-10-31 00:00:00-04:00,97.48844105703651,98.11261616053521,96.64970436656871,96.69847106933594,372900,0.0,0.0
2022-11-01 00:00:00-04:00,97.13734336958079,97.13734336958079,94.48459541186101,94.81619262695312,301300,0.0,0.0
2022-11-02 00:00:00-04:00,94.78694026854464,95.3330916607,92.2317181509877,92.41702270507812,268400,0.0,0.0
2022-11-03 00:00:00-04:00,91.9488948382548,92.67059601175141,90.26167382338723,92.3682632446289,278300,0.0,0.0
2022-11-04 00:00:00-04:00,94.0554889664151,96.33762805982337,93.85068218424422,96.32787322998047,209100,0.0,0.0
2022-11-07 00:00:00-05:00,96.73748055443556,98.0345899914135,95.55739929600225,98.00533294677734,180700,0.0,0.0
2022-11-08 00:00:00-05:00,98.50274259061094,99.24395343014979,97.65425094110901,97.86881256103516,153100,0.0,0.0
2022-11-09 00:00:00-05:00,97.7517830749261,98.3857056554023,96.11332133794969,96.66922760009766,165300,0.0,0.0
2022-11-10 00:00:00-05:00,100.28748775829739,100.69710129983766,98.5417453513467,99.79985046386719,266000,0.0,0.0
2022-11-11 00:00:00-05:00,100.29724528852903,102.48186594582045,98.95136889848328,101.6723861694336,292600,0.0,0.0
2022-11-14 00:00:00-05:00,101.04819676306815,102.66714864755373,101.04819676306815,101.81866455078125,238400,0.0,0.0
2022-11-15 00:00:00-05:00,103.21331392675727,104.36413826602359,101.70163530254348,102.10150146484375,272500,0.0,0.0
2022-11-16 00:00:00-05:00,102.26729919618415,103.27183088339511,102.11125168244985,102.32581329345703,139300,0.0,0.0
2022-11-17 00:00:00-05:00,101.1457345899273,102.47210872926864,101.1457345899273,102.02348327636719,162700,0.0,0.0
2022-11-18 00:00:00-05:00,103.48639026348893,104.28611515224972,102.02347833716397,103.41812133789062,213200,0.0,0.0
2022-11-21 00:00:00-05:00,103.4766452136995,104.06180855138355,102.33557558910226,102.5403823852539,193300,0.0,0.0
2022-11-22 00:00:00-05:00,102.63790900563987,104.02280475702663,102.63790900563987,103.37911987304688,284000,0.0,0.0
2022-11-23 00:00:00-05:00,103.36936320328242,104.1398311079335,102.96950444611858,103.56442260742188,202100,0.0,0.0
2022-11-25 00:00:00-05:00,103.91551120590492,103.91551120590492,102.94998399828181,103.29133605957031,114700,0.0,0.0
2022-11-28 00:00:00-05:00,102.44283395613587,102.8817045030489,100.68733688697594,100.94091033935547,208500,0.0,0.0
2022-11-29 00:00:00-05:00,100.45327488684775,101.52607536350794,100.3850059685354,100.75560760498047,181400,0.0,0.0
2022-11-30 00:00:00-05:00,100.34599057192206,103.55464450145388,98.99035964106336,103.51563262939453,297900,0.0,0.0
2022-12-01 00:00:00-05:00,104.13982118400281,105.11509578949563,103.87650031445183,104.44215393066406,156600,0.0,0.0
2022-12-02 00:00:00-05:00,103.6326756335968,105.86605524312506,103.47662813423473,105.37841796875,167400,0.0,0.0
2022-12-05 00:00:00-05:00,104.21784560514284,104.28611453033402,103.06702126566667,104.06179809570312,153800,0.0,0.0
2022-12-06 00:00:00-05:00,103.91550717161311,104.43240149703342,102.7646828950954,104.35437774658203,247800,0.0,0.0
2022-12-07 00:00:00-05:00,104.09107558637969,105.4857187529952,103.57417372736012,103.67170715332031,152800,0.0,0.0
2022-12-08 00:00:00-05:00,103.81797344078954,105.27113788560536,103.81797344078954,105.26138305664062,190800,0.0,0.0
2022-12-09 00:00:00-05:00,105.16386696238837,106.2854342944891,104.98831722831386,105.38817596435547,316700,0.0,0.0
2022-12-12 00:00:00-05:00,105.77827835254486,106.09036591549497,104.83226083464011,105.40767669677734,209100,0.0,0.0
2022-12-13 00:00:00-05:00,107.65080603927066,108.36275976042228,104.92004166507296,105.53446197509766,328400,0.0,0.0
2022-12-14 00:00:00-05:00,105.7587724442383,107.55327400838529,104.57869115549408,105.56371307373047,302500,0.0,0.0
2022-12-15 00:00:00-05:00,105.03707866587244,105.86606808547613,104.58845321191626,104.98831939697266,230000,0.0,0.0
2022-12-16 00:00:00-05:00,104.46165828214501,105.5832255096285,103.7594594113465,104.78350067138672,540600,0.0,0.0
2022-12-19 00:00:00-05:00,104.66647151241814,105.68075800615152,103.16454771058724,103.63268280029297,269800,0.0,0.0
2022-12-20 00:00:00-05:00,103.79847841721525,105.4564422999126,103.6424309059824,104.47142028808594,193300,0.0,0.0
2022-12-21 00:00:00-05:00,105.31016168592593,107.90438842773438,104.91029550138958,107.90438842773438,388500,0.0,0.0
2022-12-22 00:00:00-05:00,106.79256922537186,108.06042918791105,104.80300813869356,105.87580871582031,213800,0.0,0.0
2022-12-23 00:00:00-05:00,106.44145603443097,107.47524460104849,105.6709883031911,107.28994750976562,161500,0.0,0.0
2022-12-27 00:00:00-05:00,107.18268268041743,108.27498549736377,106.91935436507866,108.12870025634766,101700,0.0,0.0
2022-12-28 00:00:00-05:00,108.31399440702319,109.1429837674232,106.31468594679085,106.4707260131836,162700,0.0,0.0
2022-12-29 00:00:00-05:00,107.20218285300226,108.42127610990254,106.67553367313076,108.05067443847656,128700,0.0,0.0
2022-12-30 00:00:00-05:00,107.76785122528503,108.00191506308684,106.3244414372041,107.26071166992188,172300,0.0,0.0
2023-01-03 00:00:00-05:00,107.84587819498947,108.32376071494666,106.74381302105569,107.5337905883789,239200,0.0,0.0
2023-01-04 00:00:00-05:00,108.50906204230205,109.43557000399156,107.5825466398573,108.47980499267578,217200,0.0,0.0
2023-01-05 00:00:00-05:00,107.90437633220454,110.23528192689936,106.42196228030721,109.34778594970703,310000,0.0,0.0
2023-01-06 00:00:00-05:00,110.5766353388575,111.57141963249171,109.95246016827544,111.23982238769531,181500,0.0,0.0
2023-01-09 00:00:00-05:00,111.79572267053489,112.81976395806996,110.47910347281449,110.52787017822266,161800,0.0,0.0
2023-01-10 00:00:00-05:00,110.3913252977367,111.51288504311205,110.16700888420918,110.6253890991211,163000,0.0,0.0
2023-01-11 00:00:00-05:00,110.77169108746156,111.60067301105941,110.64490062711108,110.65465545654297,141300,0.0,0.0
2023-01-12 00:00:00-05:00,110.87896910155528,110.97649507115837,109.62086400363823,110.69366455078125,179100,0.0,0.0
2023-01-13 00:00:00-05:00,110.41082785334501,111.48362834046898,110.41082785334501,111.15203857421875,177700,0.0,0.0
2023-01-17 00:00:00-05:00,111.35685802246256,111.69820265625667,110.0402387545396,111.23982238769531,204500,0.0,0.0
2023-01-18 00:00:00-05:00,111.6591808961368,111.766461691657,109.15272560587775,109.20149230957031,118900,0.0,0.0
2023-01-19 00:00:00-05:00,108.8308893421614,109.6306216594884,107.60204870012052,109.22100067138672,177400,0.0,0.0
2023-01-20 00:00:00-05:00,109.67938137465651,110.48886108398438,108.92842320144285,110.48886108398438,180800,0.0,0.0
2023-01-23 00:00:00-05:00,110.4010737805488,110.917975531499,109.67937271201589,110.55712127685547,165500,0.0,0.0
2023-01-24 00:00:00-05:00,110.23529235727217,110.35232799379355,108.99669682729662,110.04998779296875,172600,0.0,0.0
2023-01-25 00:00:00-05:00,109.07471005247224,109.7281497035842,107.75809080213567,109.29902648925781,181200,0.0,0.0
2023-01-26 00:00:00-05:00,109.72815262186917,110.09875430907252,109.05521073437004,110.00122833251953,139000,0.0,0.0
2023-01-27 00:00:00-05:00,109.72814165564401,110.14751000958971,109.09421171027199,109.94270324707031,204300,0.0,0.0
2023-01-30 00:00:00-05:00,108.9479281647212,110.52787574602776,108.7041095069072,110.4498519897461,200200,0.0,0.0
2023-01-31 00:00:00-05:00,111.015494425368,113.44392576612083,110.51810236351376,112.7807388305664,630900,0.0,0.0
2023-02-01 00:00:00-05:00,111.98816783570234,115.52051702765439,111.92946082966749,114.57138061523438,190900,0.38,0.0
2023-02-02 00:00:00-05:00,114.57138127466314,115.79449367599972,114.07235678992349,114.77687072753906,271600,0.0,0.0
2023-02-03 00:00:00-05:00,114.0821484321196,114.0821484321196,112.73183488511435,112.93731689453125,284100,0.0,0.0
2023-02-06 00:00:00-05:00,112.09580476928828,113.01558769875837,110.9999008178711,110.9999008178711,180400,0.0,0.0
2023-02-07 00:00:00-05:00,110.24647311055472,110.403035103268,108.32863349153726,109.77680206298828,189100,0.0,0.0
2023-02-08 00:00:00-05:00,109.3168985454117,109.74743651284261,108.17206709414592,108.18184661865234,138800,0.0,0.0
2023-02-09 00:00:00-05:00,109.08207580398926,109.4049718520376,106.89025268191472,106.90003967285156,180200,0.0,0.0
2023-02-10 00:00:00-05:00,106.6554112429514,106.87068023990592,105.56928673307092,106.86089324951172,217900,0.0,0.0
2023-02-13 00:00:00-05:00,107.04680442246669,108.1622823932468,106.90002943361962,107.43820190429688,184900,0.0,0.0
2023-02-14 00:00:00-05:00,107.438211237858,108.80809134534121,107.30122322710967,107.3990707397461,122500,0.0,0.0
2023-02-15 00:00:00-05:00,106.4792815568927,108.02529754936728,106.23465905676518,108.01551055908203,155200,0.0,0.0
2023-02-16 00:00:00-05:00,106.38141768535155,109.13097177493204,105.85303227052277,108.30904388427734,372200,0.0,0.0
2023-02-17 00:00:00-05:00,112.52635733784415,118.67127374410836,111.56743379058679,114.18000793457031,590700,0.0,0.0
2023-02-21 00:00:00-05:00,113.99407578319632,113.99407578319632,110.67699554861629,112.60462188720703,463900,0.0,0.0
2023-02-22 00:00:00-05:00,112.14474586775653,113.50484644779597,111.96861735913986,112.25238037109375,257700,0.0,0.0
2023-02-23 00:00:00-05:00,112.34043243199615,113.07429991841427,110.64764894388522,112.09580993652344,196400,0.0,0.0
2023-02-24 00:00:00-05:00,111.35215583884779,112.56548124889636,110.55957392756152,112.30128479003906,215100,0.0,0.0
2023-02-27 00:00:00-05:00,113.34828540810467,114.72795998141066,113.02538936066618,114.18000793457031,215300,0.0,0.0
2023-02-28 00:00:00-05:00,114.1408489617741,115.56944332787148,114.08213449105398,114.20934295654297,261500,0.0,0.0
2023-03-01 00:00:00-05:00,113.68097508400146,115.0802161636691,113.68097508400146,114.93344116210938,194700,0.0,0.0
2023-03-02 00:00:00-05:00,114.89429070070614,116.44030664786749,114.7083826824528,116.02934265136719,205000,0.0,0.0
2023-03-03 00:00:00-05:00,116.41096318274032,117.6634292602539,115.31505163227258,117.6634292602539,225400,0.0,0.0
2023-03-06 00:00:00-05:00,117.54599069190945,117.60470516314895,114.0723559760678,114.31697845458984,265900,0.0,0.0
2023-03-07 00:00:00-05:00,114.19956377353569,114.81600976859379,113.72010577737939,114.1604232788086,247100,0.0,0.0
2023-03-08 00:00:00-05:00,113.90602946069806,114.18978500364545,112.69269643267285,112.84925842285156,281700,0.0,0.0
2023-03-09 00:00:00-05:00,113.4656912238342,113.90601617087256,112.06645032733448,112.1055908203125,189700,0.0,0.0
2023-03-10 00:00:00-05:00,112.17409308545392,112.17409308545392,109.86485608652902,110.13883209228516,201400,0.0,0.0
2023-03-13 00:00:00-04:00,109.05270447113658,110.67700140915343,109.05270447113658,109.5615234375,245400,0.0,0.0
2023-03-14 00:00:00-04:00,111.42064997876949,112.78075037157791,111.04881903105006,112.60462188720703,261500,0.0,0.0
2023-03-15 00:00:00-04:00,111.01947579810464,111.30323879724627,107.80024276474992,108.98421478271484,256200,0.0,0.0
2023-03-16 00:00:00-04:00,107.84917154248042,110.84334862432897,107.58497505567823,110.25625610351562,209200,0.0,0.0
2023-03-17 00:00:00-04:00,110.49109039168059,110.49109039168059,107.58497386085018,108.37755584716797,393800,0.0,0.0
2023-03-20 00:00:00-04:00,109.39518705084062,111.0292635900135,109.39518705084062,110.3541030883789,146400,0.0,0.0
2023-03-21 00:00:00-04:00,111.67506034275999,111.76312832418068,110.05077083445002,110.58893585205078,141200,0.0,0.0
2023-03-22 00:00:00-04:00,110.37366744445923,111.76312135785138,109.72786050524878,109.83549499511719,176700,0.0,0.0
2023-03-23 00:00:00-04:00,109.73764549343846,111.00967790415113,108.42646512499408,109.31689453125,156900,0.0,0.0
2023-03-24 00:00:00-04:00,108.63195620067049,110.55958268953378,107.65346620350424,110.5400161743164,148800,0.0,0.0
2023-03-27 00:00:00-04:00,111.01947842578275,112.36979198597774,111.01947842578275,111.5282974243164,170100,0.0,0.0
2023-03-28 00:00:00-04:00,111.32279368044414,112.64376103003902,110.70634772517593,112.54590606689453,189800,0.0,0.0
2023-03-29 00:00:00-04:00,113.20151127067999,113.4461337723694,112.68291276154427,113.37763977050781,138700,0.0,0.0
2023-03-30 00:00:00-04:00,113.77881321274664,114.25827121069774,112.57527472284893,113.4559097290039,148000,0.0,0.0
2023-03-31 00:00:00-04:00,114.01365162057634,115.72600912215786,114.01365162057634,115.64773559570312,206300,0.0,0.0
2023-04-03 00:00:00-04:00,115.39332536489201,116.25439387266012,115.11934936084243,116.09783935546875,151100,0.0,0.0
2023-04-04 00:00:00-04:00,115.95106450381833,115.95106450381833,114.2680605165745,115.138916015625,183100,0.0,0.0
2023-04-05 00:00:00-04:00,115.20741233178677,116.63600685854641,114.70838779890055,116.51859283447266,249700,0.0,0.0
2023-04-06 00:00:00-04:00,116.77299181083052,116.77299181083052,115.3933248070262,116.49901580810547,159300,0.0,0.0
2023-04-10 00:00:00-04:00,115.8336557917104,116.65559136079042,115.43247873113155,116.53816986083984,174600,0.0,0.0
2023-04-11 00:00:00-04:00,116.63600244885973,117.40901042769431,116.27396593460473,116.4892349243164,121800,0.0,0.0
2023-04-12 00:00:00-04:00,116.76322023684988,117.09590327273091,115.6477421696338,115.84343719482422,134300,0.0,0.0
2023-04-13 00:00:00-04:00,115.80429591727977,117.41880599273723,115.354191390142,117.20353698730469,110700,0.0,0.0
2023-04-14 00:00:00-04:00,116.61643507221491,117.47750355941214,115.76514610972423,116.63600158691406,233600,0.0,0.0
2023-04-17 00:00:00-04:00,116.92954253051631,117.23287200927734,115.98040613728736,117.23287200927734,122400,0.0,0.0
2023-04-18 00:00:00-04:00,117.15460898417136,117.15460898417136,115.51074551363084,116.03912353515625,261700,0.0,0.0
2023-04-19 00:00:00-04:00,115.82386452817116,116.86106154412121,115.52052755036053,116.15654754638672,252900,0.0,0.0
2023-04-20 00:00:00-04:00,116.44030439380829,117.22309934223397,115.97062593169571,116.46965789794922,296800,0.0,0.0
2023-04-21 00:00:00-04:00,116.75341485864686,118.46577218788926,116.24460339411189,117.99609375,361500,0.0,0.0
2023-04-24 00:00:00-04:00,118.26029276247478,118.80824473079451,117.1643813605496,117.81018829345703,229600,0.0,0.0
2023-04-25 00:00:00-04:00,116.86106627113051,117.36987780936104,115.34440371658748,115.53031921386719,167500,0.0,0.0
2023-04-26 00:00:00-04:00,114.4931075181641,115.05084647341042,113.12322013843884,113.26020812988281,247200,0.0,0.0
2023-04-27 00:00:00-04:00,113.26022238732834,114.07237091404232,112.16431085253525,114.06258392333984,361900,0.0,0.0
2023-04-28 00:00:00-04:00,114.00386604924881,116.99804290432304,114.00386604924881,115.96084594726562,586700,0.0,0.0
2023-05-01 00:00:00-04:00,116.84149293285557,119.86502340939604,116.84149293285557,119.02352142333984,283100,0.0,0.0
2023-05-02 00:00:00-04:00,118.14288317086096,118.27987117672369,113.24065353544547,117.88848114013672,359200,0.0,0.0
2023-05-03 00:00:00-04:00,118.2516729398072,118.78173030681221,117.53511182638174,117.69216918945312,294300,0.38,0.0
2023-05-04 00:00:00-04:00,117.73142656290354,117.93755872305542,116.20996527604514,116.61241912841797,192500,0.0,0.0
2023-05-05 00:00:00-04:00,116.79891023415145,119.63569303395245,116.79891023415145,119.4590072631836,171100,0.0,0.0
2023-05-08 00:00:00-04:00,119.6160668606866,120.08722393233099,118.438166692669,119.2626953125,200400,0.0,0.0
2023-05-09 00:00:00-04:00,118.64429522057912,118.80134507669057,117.48602351224487,118.35963439941406,185600,0.0,0.0
2023-05-10 00:00:00-04:00,118.8602299373744,119.33139445220877,116.31792611733283,117.41730499267578,227200,0.0,0.0
2023-05-11 00:00:00-04:00,117.27989407350391,117.62344766253574,116.76946517930813,117.08357238769531,203900,0.0,0.0
2023-05-12 00:00:00-04:00,117.47620439946992,118.64429405259523,117.15227924523927,118.56576538085938,168400,0.0,0.0
2023-05-15 00:00:00-04:00,118.36944486679788,118.84060941294503,117.82957709333841,118.35963439941406,148300,0.0,0.0
2023-05-16 00:00:00-04:00,118.35963697918922,118.35963697918922,116.03327555552497,116.14125061035156,180800,0.0,0.0
2023-05-17 00:00:00-04:00,116.63204984577224,116.84799996700671,115.29709226805636,116.77928924560547,168600,0.0,0.0
2023-05-18 00:00:00-04:00,115.99401185542538,116.857812298782,115.61119392763109,116.79891204833984,94000,0.0,0.0
2023-05-19 00:00:00-04:00,117.67251030836745,118.05532819500495,116.41608160464378,116.89705657958984,156900,0.0,0.0
2023-05-22 00:00:00-04:00,116.48481505746965,117.31916170434637,115.71917913471435,115.95475769042969,229600,0.0,0.0
2023-05-23 00:00:00-04:00,115.23819743180502,116.26885823429332,114.7572223906438,115.02224731445312,155400,0.0,0.0
2023-05-24 00:00:00-04:00,115.03206582752112,115.03206582752112,112.91183647116725,113.00018310546875,297800,0.0,0.0
2023-05-25 00:00:00-04:00,112.18546931452798,113.15723739640465,111.35112267902146,111.44927978515625,196800,0.0,0.0
2023-05-26 00:00:00-04:00,110.90940001682789,112.38177901647904,110.87013567816837,112.057861328125,210200,0.0,0.0
2023-05-30 00:00:00-04:00,112.10693724750945,112.60754820925368,110.92903703165979,111.27259063720703,136100,0.0,0.0
2023-05-31 00:00:00-04:00,111.35111314041339,111.46889866212248,109.6333377190282,110.4186019897461,360800,0.0,0.0
2023-06-01 00:00:00-04:00,110.74252041208102,111.42962754325274,109.9768846119451,110.86031341552734,170700,0.0,0.0
2023-06-02 00:00:00-04:00,111.91062193037851,112.63699347331249,111.56706832824129,112.057861328125,353000,0.0,0.0
2023-06-05 00:00:00-04:00,111.70449030239857,112.12657258386996,110.80142548673189,110.97811126708984,237400,0.0,0.0
2023-06-06 00:00:00-04:00,110.9584835194059,112.54865555233378,110.9584835194059,112.21491241455078,266900,0.0,0.0
2023-06-07 00:00:00-04:00,112.25417515299031,113.56949679355634,111.95969635849296,113.28484344482422,264100,0.0,0.0
2023-06-08 00:00:00-04:00,113.4320610885914,113.85414331354195,112.67624326149225,113.07868957519531,270500,0.0,0.0
2023-06-09 00:00:00-04:00,112.94127355518758,113.44188447126554,112.28361278614582,112.69587707519531,295000,0.0,0.0
2023-06-12 00:00:00-04:00,112.56827265525595,113.46151194068716,112.19527270480974,113.26519775390625,353000,0.0,0.0
2023-06-13 00:00:00-04:00,113.57930920963341,114.24678795421295,112.6468055540605,113.08851623535156,340600,0.0,0.0
2023-06-14 00:00:00-04:00,113.48113934252287,113.82469288807876,112.24433908961599,113.0394287109375,225200,0.0,0.0
2023-06-15 00:00:00-04:00,112.88237959001259,114.25660136106355,112.8332972989762,113.91304779052734,362600,0.0,0.0
2023-06-16 00:00:00-04:00,113.52041136526161,115.05168297999425,113.23575055425765,114.99279022216797,975300,0.0,0.0
2023-06-20 00:00:00-04:00,114.72776900845409,114.79647972891246,113.57931518554688,113.57931518554688,297000,0.0,0.0
2023-06-21 00:00:00-04:00,113.01980890507689,113.13760191844044,111.3314798247326,111.52780151367188,317800,0.0,0.0
2023-06-22 00:00:00-04:00,111.85171029681588,111.95968534491618,110.28117435477432,111.94987487792969,266200,0.0,0.0
2023-06-23 00:00:00-04:00,110.82106057375844,111.63577874871399,110.0063423988029,110.75234985351562,366000,0.0,0.0
2023-06-26 00:00:00-04:00,110.97809961220085,112.2639822354489,110.97809961220085,111.51797485351562,142300,0.0,0.0
2023-06-27 00:00:00-04:00,111.73393302904054,112.70570104476538,111.14498294341661,112.6075439453125,218300,0.0,0.0
2023-06-28 00:00:00-04:00,112.69588858842384,112.69588858842384,110.40879885281124,111.42964172363281,204800,0.0,0.0
2023-06-29 00:00:00-04:00,111.34129569405539,113.23575689558982,110.47750274563647,112.66643524169922,225900,0.0,0.0
2023-06-30 00:00:00-04:00,113.09832525349637,114.13880388029408,112.72531782962105,113.7265396118164,279800,0.0,0.0
2023-07-03 00:00:00-04:00,113.28483828054459,114.86518477299002,113.28483828054459,114.39402770996094,85700,0.0,0.0
2023-07-05 00:00:00-04:00,113.49096391458002,113.49096391458002,110.68362765481089,110.86031341552734,384200,0.0,0.0
2023-07-06 00:00:00-04:00,110.18302906767403,110.89959014648484,109.57444304853206,110.39897918701172,277700,0.0,0.0
2023-07-07 00:00:00-04:00,110.57565663909402,113.20630723406722,110.51675639077017,111.69466400146484,333400,0.0,0.0
2023-07-10 00:00:00-04:00,111.22350117784158,113.17686260297434,110.929029887298,112.36214447021484,248000,0.0,0.0
2023-07-11 00:00:00-04:00,112.20508796771925,113.4320704098084,111.28240226372463,113.38299560546875,226700,0.0,0.0
2023-07-12 00:00:00-04:00,114.43329570919582,115.38543531104503,113.63820597041392,114.71795654296875,199400,0.0,0.0
2023-07-13 00:00:00-04:00,114.69831984636394,115.20874874788771,114.41365901453466,114.85537719726562,190200,0.0,0.0
2023-07-14 00:00:00-04:00,115.52284962915222,116.65166744903586,114.55107417374965,116.17069244384766,271600,0.0,0.0
2023-07-17 00:00:00-04:00,116.21976986895794,117.33877717477066,115.0026054727751,117.06393432617188,234200,0.0,0.0
2023-07-18 00:00:00-04:00,116.81854209297525,118.15349953936672,116.51424536621278,116.88725280761719,189100,0.0,0.0
2023-07-19 00:00:00-04:00,116.56333833824858,117.2111886975828,116.13143809869243,116.91670989990234,247200,0.0,0.0
2023-07-20 00:00:00-04:00,117.57436296115227,118.00626317218011,116.67130569164537,117.13265228271484,175800,0.0,0.0
2023-07-21 00:00:00-04:00,117.44675876945266,117.83939464173179,116.68112293740685,117.63325500488281,184300,0.0,0.0
2023-07-24 00:00:00-04:00,117.80994478383553,118.27129138780221,116.52406956002712,117.5252914428711,163400,0.0,0.0
2023-07-25 00:00:00-04:00,117.476210996403,118.88969721139811,117.10321101807118,118.34000396728516,250700,0.0,0.0
2023-07-26 00:00:00-04:00,118.34985607308383,118.58623849459941,117.03003856449325,118.14301300048828,306900,0.41,0.0
2023-07-27 00:00:00-04:00,118.25135370008546,118.96050846224766,116.95123914094194,117.34521484375,407800,0.0,0.0
2023-07-28 00:00:00-04:00,120.64475358705498,125.07696356835932,120.04394229954343,121.91532135009766,513000,0.0,0.0
2023-07-31 00:00:00-04:00,121.6592367554332,122.06306394094794,119.00976521560548,119.6302719116211,746500,0.0,0.0
2023-08-01 00:00:00-04:00,119.41357765465155,120.65459848598519,118.93096136475683,120.59550476074219,365300,0.0,0.0
2023-08-02 00:00:00-04:00,119.61056990014845,120.48716189674361,118.17256496736918,120.39851379394531,329200,0.0,0.0
2023-08-03 00:00:00-04:00,119.68936222304521,120.88114082631289,118.90141830822384,118.99005889892578,195900,0.0,0.0
2023-08-04 00:00:00-04:00,118.80292117376706,120.29016834905809,118.66503080671306,118.82261657714844,116500,0.0,0.0
2023-08-07 00:00:00-04:00,118.91126810573093,119.82725843582493,118.69458108998327,119.46282958984375,140300,0.0,0.0
2023-08-08 00:00:00-04:00,118.27106103766785,119.57117564539334,117.90663218392186,119.29539489746094,270100,0.0,0.0
2023-08-09 00:00:00-04:00,119.29540183030906,121.53120232194752,118.70443446243924,119.99470520019531,287500,0.0,0.0
2023-08-10 00:00:00-04:00,119.96514169841102,121.70847415137443,119.96514169841102,120.38866424560547,216000,0.0,0.0
2023-08-11 00:00:00-04:00,119.67951949211201,121.36375836268823,119.67951949211201,120.76294708251953,226500,0.0,0.0
2023-08-14 00:00:00-04:00,120.1916774853484,121.13721466064453,119.74845951752447,121.13721466064453,145700,0.0,0.0
2023-08-15 00:00:00-04:00,120.78264429921424,121.07812797124159,120.14244220059155,120.25077819824219,249000,0.0,0.0
2023-08-16 00:00:00-04:00,119.89620081716167,121.3046588721182,119.65981088853212,119.70906066894531,291100,0.0,0.0
2023-08-17 00:00:00-04:00,120.1227352184302,120.8121945916867,119.78786074829033,119.80755615234375,186600,0.0,0.0
2023-08-18 00:00:00-04:00,119.55146315029884,121.56073238574015,119.55146315029884,121.43269348144531,443100,0.0,0.0
2023-08-21 00:00:00-04:00,121.29481465792134,122.58507782562879,121.20616655077505,121.91532135009766,358800,0.0,0.0
2023-08-22 00:00:00-04:00,122.00395514990728,123.81623274501855,120.91067621490348,121.09780883789062,429600,0.0,0.0
2023-08-23 00:00:00-04:00,121.20616606012085,121.69863383382778,120.46746439956047,121.53119659423828,305000,0.0,0.0
2023-08-24 00:00:00-04:00,121.62968254967774,123.57000668314262,120.74323909854385,123.22528076171875,278400,0.0,0.0
2023-08-25 00:00:00-04:00,123.67835108442223,125.75656560150136,123.0972427433097,125.6186752319336,493000,0.0,0.0
2023-08-28 00:00:00-04:00,125.707311177898,127.62793985073722,125.707311177898,127.46050262451172,331900,0.0,0.0
2023-08-29 00:00:00-04:00,127.84463920951127,129.97210363463523,127.45065596656757,129.83421325683594,472400,0.0,0.0
2023-08-30 00:00:00-04:00,130.37592131795,131.2525134058707,129.71601626559843,130.88809204101562,298900,0.0,0.0
2023-08-31 00:00:00-04:00,131.27221943038705,131.71543745765064,130.24789298895732,130.5630645751953,305800,0.0,0.0
2023-09-01 00:00:00-04:00,131.09492494428994,131.7745178351225,130.52366053389966,130.55320739746094,252000,0.0,0.0
2023-09-05 00:00:00-04:00,129.69629407214597,129.99177771573278,125.44138070283232,125.6482162475586,325300,0.0,0.0
2023-09-06 00:00:00-04:00,125.8649151442291,126.08159465361133,124.29886370837676,124.50570678710938,291100,0.0,0.0
2023-09-07 00:00:00-04:00,124.38750981983786,125.2542503868458,123.25483244984741,123.47151947021484,328600,0.0,0.0
2023-09-08 00:00:00-04:00,123.61925570619994,124.76177696941134,123.23513146547303,123.4222640991211,238800,0.0,0.0
2023-09-11 00:00:00-04:00,125.07695388171561,126.00279563295808,124.50569701713536,125.0966567993164,333500,0.0,0.0
2023-09-12 00:00:00-04:00,124.21022261093232,125.37244685863264,123.53061467790278,124.62389373779297,258000,0.0,0.0
2023-09-13 00:00:00-04:00,123.88518867479367,124.68298404247041,123.2252836789509,123.48136901855469,279300,0.0,0.0
2023-09-14 00:00:00-04:00,124.1117316816213,125.38229945229624,124.1117316816213,124.85043334960938,217900,0.0,0.0
2023-09-15 00:00:00-04:00,124.58449760838674,125.28380095833782,123.28438296216771,124.0329360961914,589200,0.0,0.0
2023-09-18 00:00:00-04:00,124.45644630402369,124.45644630402369,123.03813682585913,123.7472915649414,175100,0.0,0.0
2023-09-19 00:00:00-04:00,123.79654439534015,123.79654439534015,122.19109473410884,123.4222640991211,218600,0.0,0.0
2023-09-20 00:00:00-04:00,123.94428113776449,124.20036647475735,122.68356488558673,122.75251007080078,206200,0.0,0.0
2023-09-21 00:00:00-04:00,122.45703690729975,122.47673231164256,120.34927546291505,120.37882232666016,335700,0.0,0.0
2023-09-22 00:00:00-04:00,120.4871679803028,121.0485809448334,120.27048095636783,120.83189392089844,341200,0.0,0.0
2023-09-25 00:00:00-04:00,120.15228116938907,122.26004256679889,119.64011800881072,122.17140197753906,258800,0.0,0.0
2023-09-26 00:00:00-04:00,121.66908429375634,122.34869221115255,121.37360814470796,121.73802947998047,547000,0.0,0.0
2023-09-27 00:00:00-04:00,122.17140377584057,122.57522343473762,121.01903101173075,121.65923309326172,362400,0.0,0.0
2023-09-28 00:00:00-04:00,121.99411013583865,123.74729410203551,121.40315034597452,123.5798568725586,219300,0.0,0.0
2023-09-29 00:00:00-04:00,124.58448737054094,124.91936934289888,122.91010005213542,123.15633392333984,330900,0.0,0.0
2023-10-02 00:00:00-04:00,122.65402041708958,123.58971367978923,122.12215432885712,123.16619110107422,244100,0.0,0.0
2023-10-03 00:00:00-04:00,122.15170522531392,123.42227300340691,120.644755016134,121.01903533935547,236300,0.0,0.0
2023-10-04 00:00:00-04:00,121.68878693940901,122.78206597169766,120.48716439837379,122.3585433959961,208200,0.0,0.0
2023-10-05 00:00:00-04:00,122.09260826611496,123.04799693932927,120.95008695070266,121.88577270507812,466700,0.0,0.0
2023-10-06 00:00:00-04:00,121.74788423457618,124.78148753947032,121.53119721073205,124.50570678710938,491700,0.0,0.0
2023-10-09 00:00:00-04:00,123.92458710028268,125.30349833422895,123.79654818760531,125.02771759033203,275700,0.0,0.0
2023-10-10 00:00:00-04:00,125.3232028252605,126.6725672936951,124.60420405003339,124.63375091552734,322000,0.0,0.0
2023-10-11 00:00:00-04:00,125.60882568359375,125.77626291855002,124.74208513105981,125.60882568359375,212900,0.0,0.0
2023-10-12 00:00:00-04:00,125.30348830527898,125.48077698566038,123.17602414070203,123.53060150146484,189300,0.0,0.0
2023-10-13 00:00:00-04:00,124.10187352296693,124.761778507277,123.51091372336892,124.07232666015625,324900,0.0,0.0
2023-10-16 00:00:00-04:00,125.44138756500169,125.51033275034871,124.26931189964081,124.80117797851562,275200,0.0,0.0
2023-10-17 00:00:00-04:00,124.11172912949101,126.4066232198593,124.11172912949101,125.55958557128906,314400,0.0,0.0
2023-10-18 00:00:00-04:00,124.95877292177799,125.74671683410875,124.37765705376466,124.87012481689453,287300,0.0,0.0
2023-10-19 00:00:00-04:00,124.18067105542181,125.54973081483128,123.50106314806689,123.83594512939453,443900,0.0,0.0
2023-10-20 00:00:00-04:00,124.03293226088714,124.57464981108677,120.09319011968779,120.37882232666016,446500,0.0,0.0
2023-10-23 00:00:00-04:00,119.88635712970668,121.30466673557872,119.38403789188335,119.66967010498047,379000,0.0,0.0
2023-10-24 00:00:00-04:00,120.2901701673284,121.90546378962974,119.88635051898383,121.48194122314453,312100,0.0,0.0
2023-10-25 00:00:00-04:00,120.98784154022502,122.32193776712508,120.45420154156011,120.92855072021484,431300,0.41,0.0
2023-10-26 00:00:00-04:00,119.83162224324822,123.9129702724296,119.83162224324822,121.97605895996094,576000,0.0,0.0
2023-10-27 00:00:00-04:00,122.01557816536304,122.38121490056723,118.94221201313975,119.74266815185547,364000,0.0,0.0
2023-10-30 00:00:00-04:00,120.48384087248407,120.87913057816436,119.42644524501559,120.73089599609375,283100,0.0,0.0
2023-10-31 00:00:00-04:00,121.0668978964798,121.44241897947953,120.39490764196373,120.82971954345703,422900,0.0,0.0
2023-11-01 00:00:00-04:00,120.67160832753754,121.97605911265033,120.17749806742626,121.48194885253906,360500,0.0,0.0
2023-11-02 00:00:00-04:00,122.26264837035367,122.82593378558079,121.53136727012583,122.12429809570312,384300,0.0,0.0
2023-11-03 00:00:00-04:00,122.96428251310115,124.48614305463377,122.96428251310115,123.87344360351562,278000,0.0,0.0
2023-11-06 00:00:00-05:00,123.7943839445495,124.24897202852465,123.28051258024303,123.71533203125,173500,0.0,0.0
2023-11-07 00:00:00-05:00,123.15203798549139,123.51767473498641,122.70733424919426,123.0828628540039,205000,0.0,0.0
2023-11-08 00:00:00-05:00,123.40897033892367,124.01178543249576,122.94451304836508,123.64614868164062,175800,0.0,0.0
2023-11-09 00:00:00-05:00,124.20943327907183,124.20943327907183,122.60851340354475,122.92474365234375,118600,0.0,0.0
2023-11-10 00:00:00-05:00,122.77651268056438,124.3082574697725,122.43063701383082,124.23908233642578,195600,0.0,0.0
2023-11-13 00:00:00-05:00,123.9129653082153,124.00190907191333,122.90498373662263,123.06309509277344,183100,0.0,0.0
2023-11-14 00:00:00-05:00,124.46637361252297,126.35387845706128,123.83391307203956,126.343994140625,267400,0.0,0.0
2023-11-15 00:00:00-05:00,126.3143475614149,127.28280699604653,125.8498827070265,126.20564270019531,388600,0.0,0.0
2023-11-16 00:00:00-05:00,126.14634403726522,127.10491155642306,125.3458803326469,126.04752349853516,217000,0.0,0.0
2023-11-17 00:00:00-05:00,127.04562613275004,127.55950501919288,126.10681966568688,126.42304992675781,162700,0.0,0.0
2023-11-20 00:00:00-05:00,125.94870979650948,126.14635843605375,124.94072812317013,125.82024383544922,213900,0.0,0.0
2023-11-21 00:00:00-05:00,125.95858603909745,126.78869519292185,125.70164659392273,126.40328979492188,160600,0.0,0.0
2023-11-22 00:00:00-05:00,126.93692238821531,127.67808777593831,125.85976564369618,127.0555191040039,174800,0.0,0.0
2023-11-24 00:00:00-05:00,127.45080302762,127.45080302762,126.59105599136227,127.01598358154297,65900,0.0,0.0
2023-11-27 00:00:00-05:00,126.3143459530231,126.78869511771629,125.35577084694202,125.5040054321289,367500,0.0,0.0
2023-11-28 00:00:00-05:00,125.504004627321,125.51388894347652,124.01178954785065,124.13037872314453,218000,0.0,0.0
2023-11-29 00:00:00-05:00,124.16002759218779,124.91107731093103,123.44850759964413,123.8932113647461,331800,0.0,0.0
2023-11-30 00:00:00-05:00,123.97226185014588,125.63247263378987,123.33980131728381,125.39530181884766,301000,0.0,0.0
2023-12-01 00:00:00-05:00,124.93083848043351,127.02586119361783,124.93083848043351,126.59105682373047,218300,0.0,0.0
2023-12-04 00:00:00-05:00,125.94870483790406,127.36186805155403,125.39530374801691,126.90727996826172,192000,0.0,0.0
2023-12-05 00:00:00-05:00,126.73928570844643,127.17410516368075,124.39720028755862,124.50590515136719,178000,0.0,0.0
2023-12-06 00:00:00-05:00,124.90119267287656,125.80047697767145,124.39719808953521,124.88143157958984,179500,0.0,0.0
2023-12-07 00:00:00-05:00,124.75295250697287,125.61270704722888,124.50589738455122,125.00000762939453,254000,0.0,0.0
2023-12-08 00:00:00-05:00,124.87155298421081,125.99812384127671,124.14027186670873,125.82024383544922,265800,0.0,0.0
2023-12-11 00:00:00-05:00,125.76093770078381,126.17598848400344,124.8517691486293,126.0672836303711,338000,0.0,0.0
2023-12-12 00:00:00-05:00,126.1463510868967,126.5910548453198,125.1877759746455,125.97835540771484,210300,0.0,0.0
2023-12-13 00:00:00-05:00,125.68188460960275,127.47056885739063,125.68188460960275,127.07527160644531,425000,0.0,0.0
2023-12-14 00:00:00-05:00,127.55950271773703,128.47854053591945,125.38541311501618,125.8992919921875,412900,0.0,0.0
2023-12-15 00:00:00-05:00,125.66212560679767,127.06539694313376,124.48614076913015,124.49602508544922,713000,0.0,0.0
2023-12-18 00:00:00-05:00,125.21741451166595,125.71152474533498,124.39718971428961,125.55341339111328,240500,0.0,0.0
2023-12-19 00:00:00-05:00,126.20564229345229,126.62070064382776,124.5454315105232,124.74308013916016,659100,0.0,0.0
2023-12-20 00:00:00-05:00,124.53555470656374,125.44472337408894,123.982153592046,124.09085845947266,346400,0.0,0.0
2023-12-21 00:00:00-05:00,124.75295640698745,124.75295640698745,123.3793304865428,124.42684936523438,421900,0.0,0.0
2023-12-22 00:00:00-05:00,124.91107389434772,125.54353441719309,124.63437335804339,124.78260040283203,312200,0.0,0.0
2023-12-26 00:00:00-05:00,124.6541318886724,125.3755361630872,124.11060760387191,124.34778594970703,274700,0.0,0.0
2023-12-27 00:00:00-05:00,124.63436937582038,124.98024503514964,123.55720513445337,123.80426025390625,283100,0.0,0.0
2023-12-28 00:00:00-05:00,123.50780990540973,124.31815046958467,122.9346401664867,123.72521209716797,343600,0.0,0.0
2023-12-29 00:00:00-05:00,123.71533193650929,123.8833276189881,122.10452762943483,122.16382598876953,313500,0.0,0.0
2024-01-02 00:00:00-05:00,121.16571704448889,122.6381634898007,120.84948678362613,121.43253326416016,313100,0.0,0.0
2024-01-03 00:00:00-05:00,123.67579826718928,125.76094414531796,121.69935724826344,123.8833236694336,531700,0.0,0.0
2024-01-04 00:00:00-05:00,123.70544279171902,124.43672385242652,122.66780824839185,122.75675201416016,353300,0.0,0.0
2024-01-05 00:00:00-05:00,122.32193344846323,122.90498746956777,121.54123834128632,122.73698425292969,423000,0.0,0.0
2024-01-08 00:00:00-05:00,122.60852284211245,123.68568715781811,120.92855092970204,122.88522338867188,352400,0.0,0.0
2024-01-09 00:00:00-05:00,122.25275758637918,123.17180295623872,121.52147652483717,123.16191864013672,250300,0.0,0.0
2024-01-10 00:00:00-05:00,122.99392771839973,123.94261853371319,122.76664121593656,123.71533203125,279600,0.0,0.0
2024-01-11 00:00:00-05:00,123.90308518645588,125.47435972243426,123.46827328767989,125.34588623046875,323100,0.0,0.0
2024-01-12 00:00:00-05:00,126.38352064693153,126.46258009735882,124.43672503242341,124.94071960449219,231700,0.0,0.0
2024-01-16 00:00:00-05:00,124.39719304252597,125.32612271932483,124.03155628512354,125.31623840332031,257500,0.0,0.0
2024-01-17 00:00:00-05:00,124.45648936589546,125.77081687111075,124.4070753262042,125.1976547241211,336900,0.0,0.0
2024-01-18 00:00:00-05:00,125.82024377996669,128.47855200982383,124.82213888440117,127.61880493164062,444200,0.0,0.0
2024-01-19 00:00:00-05:00,128.18209008005715,129.91147598730586,127.02585880393394,129.25924682617188,418000,0.0,0.0
2024-01-22 00:00:00-05:00,129.35804569822244,130.25732989071665,129.02205437763564,129.64463806152344,266200,0.0,0.0
2024-01-23 00:00:00-05:00,130.24746945845396,130.296883500987,128.79478406646476,130.27711486816406,217800,0.0,0.0
2024-01-24 00:00:00-05:00,130.56369865715703,130.7316943468538,129.00230832585552,129.23948669433594,294400,0.0,0.0
2024-01-25 00:00:00-05:00,130.47474445843625,130.82062764663073,128.84418675191344,129.7039337158203,332300,0.0,0.0
2024-01-26 00:00:00-05:00,130.12886723227166,131.02815149954128,129.85216670065762,130.1486358642578,219900,0.0,0.0
2024-01-29 00:00:00-05:00,129.50630753208833,131.02816056121415,128.952906430588,130.69216918945312,187800,0.0,0.0
2024-01-30 00:00:00-05:00,130.47475945971385,131.52227084170357,130.07947726694195,130.69216918945312,228400,0.0,0.0
2024-01-31 00:00:00-05:00,131.2175488168734,131.6140753923471,128.03550435063644,128.74923706054688,537500,0.41,0.0
2024-02-01 00:00:00-05:00,129.32418547298803,129.9685203411413,128.48157975991825,129.36383056640625,298800,0.0,0.0
2024-02-02 00:00:00-05:00,128.82853516166915,129.57200543236544,127.56958793469315,128.96731567382812,344800,0.0,0.0
2024-02-05 00:00:00-05:00,128.00577179741288,130.30556552210692,126.9351726903174,129.5125274658203,319500,0.0,0.0
2024-02-06 00:00:00-05:00,129.34399233153823,130.2559806822857,128.1742730749081,129.98834228515625,369700,0.0,0.0
2024-02-07 00:00:00-05:00,130.2659228755762,131.26712417582533,128.24367503772052,130.65252685546875,393000,0.0,0.0
2024-02-08 00:00:00-05:00,130.49390979357565,133.6660467963085,130.39477436732616,130.9697265625,620700,0.0,0.0
2024-02-09 00:00:00-05:00,130.95981501793833,137.99800653748164,130.3650327307306,137.75018310546875,650900,0.0,0.0
2024-02-12 00:00:00-05:00,137.94843452529844,139.2470268484113,136.31279084943992,136.41192626953125,491300,0.0,0.0
2024-02-13 00:00:00-05:00,135.49992909646207,136.13435641645802,133.8048103288492,134.7465362548828,275900,0.0,0.0
2024-02-14 00:00:00-05:00,135.07367289511177,136.26323742510704,133.99316640210938,135.9757537841797,335000,0.0,0.0
2024-02-15 00:00:00-05:00,135.97576415206808,136.61019155766678,133.39840943442317,133.8643035888672,471400,0.0,0.0
2024-02-16 00:00:00-05:00,134.19142649181865,136.79853382457387,133.8642977479947,136.30288696289062,453900,0.0,0.0
2024-02-20 00:00:00-05:00,135.94601402085385,138.91989504664994,135.75766580240287,138.47381591796875,373000,0.0,0.0
2024-02-21 00:00:00-05:00,137.86913947554837,138.8901708495271,137.77992666639122,138.7811279296875,276300,0.0,0.0
2024-02-22 00:00:00-05:00,139.24703328340902,141.180053056989,138.8505218366026,140.2383270263672,295700,0.0,0.0
2024-02-23 00:00:00-05:00,140.73397752354722,140.81328284014006,139.37590990100838,140.12928771972656,190300,0.0,0.0
2024-02-26 00:00:00-05:00,140.2680761335312,140.8231982549688,139.5741734817342,140.68441772460938,199200,0.0,0.0
2024-02-27 00:00:00-05:00,140.68439280321402,140.9421237065279,138.58285510834838,139.08840942382812,244600,0.0,0.0
2024-02-28 00:00:00-05:00,138.43416809390393,140.01033667439933,138.11696195491015,139.18756103515625,189600,0.0,0.0
2024-02-29 00:00:00-05:00,139.40565497538333,140.396948797008,138.6126168928949,139.2371368408203,250600,0.0,0.0
2024-03-01 00:00:00-05:00,138.6621693304686,139.5642351130347,138.3449480820494,139.06858825683594,151400,0.0,0.0
2024-03-04 00:00:00-05:00,139.46511282655615,140.88265555459782,139.33623980548273,140.72406005859375,260300,0.0,0.0
2024-03-05 00:00:00-05:00,141.0313818569853,141.9632005065903,140.50599732066655,141.27920532226562,190200,0.0,0.0
2024-03-06 00:00:00-05:00,141.68560621173435,142.38943141864434,141.2395270563974,141.82440185546875,184000,0.0,0.0
2024-03-07 00:00:00-05:00,143.2419369981293,143.87636434934632,142.58767953801575,143.390625,250100,0.0,0.0
2024-03-08 00:00:00-05:00,143.45012922799398,143.8069955930077,141.72527260943724,141.84422302246094,185200,0.0,0.0
2024-03-11 00:00:00-04:00,141.54683652531014,142.13171136913695,140.74389095907273,141.49728393554688,226700,0.0,0.0
2024-03-12 00:00:00-04:00,141.5567547257704,141.60632243992973,140.24823967648902,141.17015075683594,242200,0.0,0.0
2024-03-13 00:00:00-04:00,141.75499169716946,141.75499169716946,139.70300658487778,139.93101501464844,336800,0.0,0.0
2024-03-14 00:00:00-04:00,140.12929766345746,140.38702861621618,139.1380038246175,139.70303344726562,235200,0.0,0.0
2024-03-15 00:00:00-04:00,138.82076653015324,141.1701429429702,138.5233905135426,139.7724151611328,599500,0.0,0.0
2024-03-18 00:00:00-04:00,139.70302038648921,140.06980935821068,137.72043289416052,138.0475616455078,299700,0.0,0.0
2024-03-19 00:00:00-04:00,137.67089007869433,139.09835559463502,137.67089007869433,138.29539489746094,253000,0.0,0.0
2024-03-20 00:00:00-04:00,138.41435230223198,138.85052397600484,137.92861291535908,138.7513885498047,220000,0.0,0.0
2024-03-21 00:00:00-04:00,139.08841825193014,140.3671956103983,138.08721704857123,139.91119384765625,255800,0.0,0.0
2024-03-22 00:00:00-04:00,140.7736261239202,141.20979781306954,139.821992552997,140.35728454589844,276000,0.0,0.0
2024-03-25 00:00:00-04:00,139.9706607801355,142.7958537415966,139.9409231806204,141.71534729003906,316300,0.0,0.0
2024-03-26 00:00:00-04:00,141.58647326162372,143.05358362231945,141.378294940567,141.9532470703125,314200,0.0,0.0
2024-03-27 00:00:00-04:00,142.41915705286345,143.8862674213768,142.41915705286345,143.40054321289062,218200,0.0,0.0
2024-03-28 00:00:00-04:00,143.55916383297742,144.08454829465626,142.39933686940833,142.6372528076172,247800,0.0,0.0
2024-04-01 00:00:00-04:00,142.53811857132533,142.53811857132533,140.88265985977688,141.05117797851562,204400,0.0,0.0
2024-04-02 00:00:00-04:00,140.60509657020089,140.60509657020089,139.16772371206562,139.4056396484375,202600,0.0,0.0
2024-04-03 00:00:00-04:00,139.4452793146353,139.960756260409,138.65224135020063,139.65345764160156,258700,0.0,0.0
2024-04-04 00:00:00-04:00,140.59518971189533,141.5071781165175,139.7426765101487,140.51588439941406,403600,0.0,0.0
2024-04-05 00:00:00-04:00,140.14910426380894,141.5170792462723,139.72284011912797,140.4960479736328,288300,0.0,0.0
2024-04-08 00:00:00-04:00,140.4365711471719,141.14039630193804,139.16771647109113,139.2866668701172,312500,0.0,0.0
2024-04-09 00:00:00-04:00,139.19745233021874,139.8715398767991,138.1466834827859,139.08840942382812,242600,0.0,0.0
2024-04-10 00:00:00-04:00,137.76999877927764,138.99920845355638,137.2446143108546,138.18634033203125,200700,0.0,0.0
2024-04-11 00:00:00-04:00,138.04755907083242,138.8207669683444,137.24461357156548,137.918701171875,265300,0.0,0.0
2024-04-12 00:00:00-04:00,136.9670646336894,137.74027259948474,134.77631377258373,136.00550842285156,299200,0.0,0.0
2024-04-15 00:00:00-04:00,137.4032144251727,138.59276378858684,136.6300065826565,136.9967803955078,319600,0.0,0.0
2024-04-16 00:00:00-04:00,136.5903543367824,138.17643033118634,136.1641052997771,137.38339233398438,281700,0.0,0.0
2024-04-17 00:00:00-04:00,137.6708850056611,138.26565219809098,137.14550051234048,137.19505310058594,565400,0.0,0.0
2024-04-18 00:00:00-04:00,137.1851320847816,138.22599347635693,137.01661397390805,137.89886474609375,246600,0.0,0.0
2024-04-19 00:00:00-04:00,137.84930054424208,138.7018137377263,137.56183202448253,138.12686157226562,276600,0.0,0.0
2024-04-22 00:00:00-04:00,138.33502731615243,139.92108802823105,138.03763620578138,139.09832763671875,298800,0.0,0.0
2024-04-23 00:00:00-04:00,138.55312824028502,139.93102591361165,138.30530480892452,138.9298095703125,417200,0.0,0.0
2024-04-24 00:00:00-04:00,139.13860773601874,140.08309687938592,138.83040745274005,139.19825744628906,559200,0.41,0.0
2024-04-25 00:00:00-04:00,139.0292386706214,140.4310674806865,138.11457442322126,139.3672637939453,694400,0.0,0.0
2024-04-26 00:00:00-04:00,141.17671738557638,147.6489684748245,141.07729109393654,142.49900817871094,489500,0.0,0.0
2024-04-29 00:00:00-04:00,144.05989608090238,147.16181733326363,143.53297011620526,145.5313262939453,676700,0.0,0.0
2024-04-30 00:00:00-04:00,144.89503861467492,145.25295202466614,143.2247709779419,143.5429229736328,585100,0.0,0.0
2024-05-01 00:00:00-04:00,144.1493863720236,146.35651652986462,143.74175981802546,144.53712463378906,359600,0.0,0.0
2024-05-02 00:00:00-04:00,144.914913867979,145.8792912599076,144.44763759888693,145.07398986816406,356500,0.0,0.0
2024-05-03 00:00:00-04:00,146.25709550003984,146.2769837929879,144.00025211559725,145.95883178710938,303300,0.0,0.0
2024-05-06 00:00:00-04:00,146.9033104690389,148.21566464459445,146.30679825586762,148.17588806152344,260200,0.0,0.0
2024-05-07 00:00:00-04:00,147.46008217334202,149.50813634180696,147.46008217334202,148.85195922851562,392900,0.0,0.0
2024-05-08 00:00:00-04:00,148.8519676667531,149.99529422900792,148.6133536564871,149.91575622558594,223500,0.0,0.0
2024-05-09 00:00:00-04:00,150.12453415300365,150.8502975207552,147.76827976285352,148.21566772460938,299100,0.0,0.0
2024-05-10 00:00:00-04:00,148.08641386966042,148.1361270134608,147.23139937538733,147.62908935546875,186300,0.0,0.0
2024-05-13 00:00:00-04:00,147.66885717155736,148.6133462634333,146.00854125481663,147.01268005371094,167500,0.0,0.0
2024-05-14 00:00:00-04:00,147.44020100009575,147.45013756156888,146.61501128814115,147.04251098632812,137600,0.0,0.0
2024-05-15 00:00:00-04:00,147.102167082445,147.47995361006247,145.91906401390577,146.4261016845703,211100,0.0,0.0
2024-05-16 00:00:00-04:00,146.51557301812144,147.042498969268,145.58102052504745,146.68458557128906,235500,0.0,0.0
2024-05-17 00:00:00-04:00,146.99280706497723,147.31094389280457,146.27698023946283,146.8138427734375,169500,0.0,0.0
2024-05-20 00:00:00-04:00,146.73430448574354,147.54955760165925,146.1874902214491,147.31094360351562,163400,0.0,0.0
2024-05-21 00:00:00-04:00,147.08229020027764,147.817990190825,146.23721217995782,147.728515625,280400,0.0,0.0
2024-05-22 00:00:00-04:00,147.21152602409944,147.96711422959115,146.61499864007018,147.92733764648438,283300,0.0,0.0
2024-05-23 00:00:00-04:00,147.7981084397933,148.0864204140624,146.7044799091405,146.86355590820312,171700,0.0,0.0
2024-05-24 00:00:00-04:00,147.61913778568456,147.96711462234552,146.50563618088398,147.2313995361328,162300,0.0,0.0
2024-05-28 00:00:00-04:00,146.764117953418,146.92319393983948,144.97456620230014,145.85940551757812,318400,0.0,0.0
2024-05-29 00:00:00-04:00,144.8055455017125,145.84946085399403,143.67215559160385,144.000244140625,229700,0.0,0.0
2024-05-30 00:00:00-04:00,144.28857058679588,146.12783556029183,144.15931944589317,145.29270935058594,328100,0.0,0.0
2024-05-31 00:00:00-04:00,145.24301048494436,146.97292794967595,145.07399791424487,146.833740234375,358900,0.0,0.0
2024-06-03 00:00:00-04:00,147.6390352585539,147.6390352585539,145.43190503298203,147.30101013183594,266200,0.0,0.0
2024-06-04 00:00:00-04:00,146.79394812461462,147.52966321073654,145.84945907277913,147.33082580566406,287900,0.0,0.0
2024-06-05 00:00:00-04:00,146.86355577498975,147.34076860142255,146.2272669496386,147.06239318847656,229200,0.0,0.0
2024-06-06 00:00:00-04:00,147.1518720418501,147.1518720418501,144.5570035187933,145.11376953125,197600,0.0,0.0
2024-06-07 00:00:00-04:00,144.92485667565106,145.48160747169428,144.60670469487127,144.7061309814453,179100,0.0,0.0
2024-06-10 00:00:00-04:00,143.99030717125453,144.96462108446894,143.15518095992786,144.7458953857422,125800,0.0,0.0
2024-06-11 00:00:00-04:00,144.069842198694,144.8950318322786,143.51309140261802,144.6564178466797,147700,0.0,0.0
2024-06-12 00:00:00-04:00,145.39213888233263,145.4617251495329,143.234721873972,144.98451232910156,221300,0.0,0.0
2024-06-13 00:00:00-04:00,145.04416203536522,145.68045085271436,144.17921095389806,144.98451232910156,232400,0.0,0.0
2024-06-14 00:00:00-04:00,144.2487917043436,144.53711883402036,142.84696297947195,143.9107666015625,141500,0.0,0.0
2024-06-17 00:00:00-04:00,144.03007123818756,145.82957483514926,143.7318227074485,145.4816131591797,303800,0.0,0.0
2024-06-18 00:00:00-04:00,145.63074941518855,146.83374087939953,145.62081285345312,145.83953857421875,219900,0.0,0.0
2024-06-20 00:00:00-04:00,145.8097081220493,146.67465923985355,144.82544241638323,144.96463012695312,199900,0.0,0.0
2024-06-21 00:00:00-04:00,145.0242822893985,146.28692343756714,144.46753143769917,145.9986114501953,444100,0.0,0.0
2024-06-24 00:00:00-04:00,146.36644005855862,147.37057875723085,145.8196258482636,145.8693389892578,182900,0.0,0.0
2024-06-25 00:00:00-04:00,145.93894470307328,145.94889643479104,143.66222817714564,144.0201416015625,194500,0.0,0.0
2024-06-26 00:00:00-04:00,143.4136783501354,143.9505409043724,142.13116408870536,142.87681579589844,192400,0.0,0.0
2024-06-27 00:00:00-04:00,143.03587341308594,143.04582514463127,141.4451589090506,143.03587341308594,377300,0.0,0.0
2024-06-28 00:00:00-04:00,142.9463882562167,143.48326592890723,139.27777978400968,139.9936065673828,435100,0.0,0.0
2024-07-01 00:00:00-04:00,140.56031649992028,140.65972762098727,137.58764636312122,137.7367706298828,306400,0.0,0.0
2024-07-02 00:00:00-04:00,137.6771168664537,139.6854095648267,136.96129006644594,139.5859832763672,259400,0.0,0.0
2024-07-03 00:00:00-04:00,140.063219987868,140.58019424318394,139.75501971288125,140.4012451171875,143300,0.0,0.0
2024-07-05 00:00:00-04:00,140.17257383401406,140.61996179057115,138.91986935126823,140.0830841064453,207000,0.0,0.0
2024-07-08 00:00:00-04:00,140.8287476496575,141.67382566032194,140.67962337498633,140.68955993652344,249300,0.0,0.0
2024-07-09 00:00:00-04:00,140.0433415757156,140.45096817412028,138.93977637657352,139.22808837890625,238400,0.0,0.0
2024-07-10 00:00:00-04:00,139.93396267066512,140.808865480054,139.75501355255665,140.4708251953125,142000,0.0,0.0
2024-07-11 00:00:00-04:00,140.38135020760953,142.46918093443176,139.93396224338247,141.2661895751953,244500,0.0,0.0
2024-07-12 00:00:00-04:00,142.57854240098845,144.64648481567454,142.57854240098845,143.75169372558594,263900,0.0,0.0
2024-07-15 00:00:00-04:00,143.92070998156234,144.8453259480649,142.31010721643665,142.59841918945312,319900,0.0,0.0
2024-07-16 00:00:00-04:00,143.01598774998143,144.45757785765295,143.01598774998143,143.72186279296875,178800,0.0,0.0
2024-07-17 00:00:00-04:00,143.50315217288863,144.9248693091611,143.50315217288863,144.0201416015625,242300,0.0,0.0
2024-07-18 00:00:00-04:00,143.77158413178512,146.39627739473178,143.7616475708671,145.43190002441406,434200,0.0,0.0
2024-07-19 00:00:00-04:00,145.7401127614944,145.7401127614944,143.82130958785305,145.09388732910156,251200,0.0,0.0
2024-07-22 00:00:00-04:00,145.14359967477395,146.7044894018996,144.40788450924526,146.33663940429688,235700,0.0,0.0
2024-07-23 00:00:00-04:00,147.01267493335766,147.64896373659573,144.82543312037194,145.1932830810547,234500,0.0,0.0
2024-07-24 00:00:00-04:00,145.22312418531487,145.77987499600405,143.06569203841158,143.30430603027344,250600,0.0,0.0
2024-07-25 00:00:00-04:00,142.4466137172535,143.66334017802635,140.84093471363238,141.11021423339844,558100,0.45,0.0
2024-07-26 00:00:00-04:00,142.7458185274977,150.8839040725973,141.9679134034649,146.26634216308594,562800,0.0,0.0
2024-07-29 00:00:00-04:00,146.18654807363913,147.9518012557539,144.78032917910988,147.4032745361328,390900,0.0,0.0
2024-07-30 00:00:00-04:00,146.98440955393974,147.50300282044066,145.01969618270712,145.35877990722656,411000,0.0,0.0
2024-07-31 00:00:00-04:00,146.10677238813136,148.4504707285892,145.0197017612093,146.58547973632812,280600,0.0,0.0
2024-08-01 00:00:00-04:00,146.48575417142177,149.13860271713426,145.03963404176758,146.63534545898438,335300,0.0,0.0
2024-08-02 00:00:00-04:00,146.1865607027143,146.60543153811187,143.36415499050057,145.2989501953125,213500,0.0,0.0
2024-08-05 00:00:00-04:00,143.04500195071893,143.04500195071893,139.10560747243943,140.30238342285156,448500,0.0,0.0
2024-08-06 00:00:00-04:00,140.9506421425725,145.69785981497913,140.7312314517885,144.5409698486328,476000,0.0,0.0
2024-08-07 00:00:00-04:00,145.61807332642232,146.86471806655007,143.08489791032852,143.2145538330078,353600,0.0,0.0
2024-08-08 00:00:00-04:00,144.07225793334294,145.76769187651146,144.07225793334294,145.16929626464844,268600,0.0,0.0
2024-08-09 00:00:00-04:00,145.01970173177108,145.01970173177108,143.08490654350197,143.56361389160156,263200,0.0,0.0
2024-08-12 00:00:00-04:00,143.58356293459363,143.7929907393466,142.38678696822322,142.90538024902344,221100,0.0,0.0
2024-08-13 00:00:00-04:00,143.12479067928683,144.9099945543652,142.71590275055541,143.98248291015625,212000,0.0,0.0
2024-08-14 00:00:00-04:00,143.74314177678474,144.42130926648593,143.10486022619372,143.5137481689453,115700,0.0,0.0
2024-08-15 00:00:00-04:00,144.61078772865739,146.94450299558522,144.61078772865739,146.61538696289062,277500,0.0,0.0
2024-08-16 00:00:00-04:00,145.7178086429149,146.4458448984164,145.21915075490517,146.326171875,250600,0.0,0.0
2024-08-19 00:00:00-04:00,145.9272513224637,147.33345499792665,145.52831588225743,146.57550048828125,191200,0.0,0.0
2024-08-20 00:00:00-04:00,146.58547636304425,147.91190824245643,146.58547636304425,147.7124481201172,387200,0.0,0.0
2024-08-21 00:00:00-04:00,147.77227873284713,149.16852996911774,147.06419304414976,148.92916870117188,267300,0.0,0.0
2024-08-22 00:00:00-04:00,149.16853288609883,149.99629161604025,148.27093952712292,148.590087890625,200400,0.0,0.0
2024-08-23 00:00:00-04:00,149.25828872832403,150.1259486188488,149.03887803129888,150.03619384765625,221400,0.0,0.0
2024-08-26 00:00:00-04:00,150.27553600322852,152.26019990468,149.7369921722213,149.75694274902344,235500,0.0,0.0
2024-08-27 00:00:00-04:00,149.6073354575319,151.133227391442,149.4377936001898,150.7941436767578,208300,0.0,0.0
2024-08-28 00:00:00-04:00,150.5248764586845,151.56209348205394,150.5248764586845,151.13323974609375,249000,0.0,0.0
2024-08-29 00:00:00-04:00,152.14052586050624,152.49956015138338,150.8041263625091,151.87124633789062,187100,0.0,0.0
2024-08-30 00:00:00-04:00,151.79146048136437,153.0281375417213,151.23296607276166,152.77880859375,178500,0.0,0.0
2024-09-03 00:00:00-04:00,151.7017037750138,151.97098329637666,149.32808735093408,149.6372528076172,362400,0.0,0.0
2024-09-04 00:00:00-04:00,149.19845240971176,150.49495079841,149.19845240971176,150.32540893554688,175800,0.0,0.0
2024-09-05 00:00:00-04:00,150.67447925817638,151.35264672627906,149.54750748684052,150.31544494628906,200600,0.0,0.0
2024-09-06 00:00:00-04:00,149.9763613557829,152.70899702647708,149.9763613557829,151.9709930419922,319100,0.0,0.0
2024-09-09 00:00:00-04:00,152.16047510581276,152.64915009618142,151.03350341028641,151.5022430419922,241500,0.0,0.0
2024-09-10 00:00:00-04:00,151.46235157142956,152.37988031700135,151.03351306529763,151.1033172607422,158100,0.0,0.0
2024-09-11 00:00:00-04:00,150.38525079268496,150.4750207850162,148.23106011554742,150.43511962890625,178000,0.0,0.0
2024-09-12 00:00:00-04:00,150.4849887540154,151.60197764192228,149.56745999354442,151.5521240234375,200400,0.0,0.0
2024-09-13 00:00:00-04:00,151.78149156962914,152.5992825990635,151.492261470345,151.87124633789062,138600,0.0,0.0
2024-09-16 00:00:00-04:00,152.62921458132197,152.7588705145806,151.66183218445363,152.57936096191406,182900,0.0,0.0
2024-09-17 00:00:00-04:00,153.5866296991098,155.15242277397783,151.46234222382526,152.61923217773438,259900,0.0,0.0
2024-09-18 00:00:00-04:00,153.3472690170848,155.07263627515385,152.30009962123864,152.6591339111328,214200,0.0,0.0
2024-09-19 00:00:00-04:00,154.60390786200904,158.38372825071872,154.60390786200904,156.47885131835938,412400,0.0,0.0
2024-09-20 00:00:00-04:00,155.8904363617549,155.8904363617549,154.06534655021557,155.49151611328125,663300,0.0,0.0
2024-09-23 00:00:00-04:00,155.75080963595366,156.48882882047508,154.32465531926172,155.5413818359375,315800,0.0,0.0
2024-09-24 00:00:00-04:00,155.7607751810832,156.65836853663214,155.61118389740747,156.20957946777344,246200,0.0,0.0
2024-09-25 00:00:00-04:00,156.87777486028946,157.44623694025017,155.4516053850471,156.71820068359375,284100,0.0,0.0
2024-09-26 00:00:00-04:00,157.5160583780924,158.6330471936873,157.2766971099658,157.9548797607422,371600,0.0,0.0
2024-09-27 00:00:00-04:00,158.25407181382246,161.11637865217875,157.83520098285544,159.46083068847656,354300,0.0,0.0
2024-09-30 00:00:00-04:00,158.86243164794053,159.98940340400793,158.50339734091747,159.76002502441406,289800,0.0,0.0
2024-10-01 00:00:00-04:00,160.10908102182546,160.10908102182546,158.62309013398428,159.54061889648438,192200,0.0,0.0
2024-10-02 00:00:00-04:00,159.4309042020019,159.6802331516974,157.53601027144867,158.32388305664062,186900,0.0,0.0
2024-10-03 00:00:00-04:00,157.56593495409092,160.02930629497408,156.21955248369235,158.5133819580078,367000,0.0,0.0
2024-10-04 00:00:00-04:00,159.51069006003982,161.0365820029643,158.90232681876836,160.1489715576172,350500,0.0,0.0
2024-10-07 00:00:00-04:00,158.96217139030824,159.21150035071827,157.58587065913858,158.26405334472656,223300,0.0,0.0
2024-10-08 00:00:00-04:00,157.85514229856898,158.59316146287298,156.67831696887936,158.2440948486328,205900,0.0,0.0
2024-10-09 00:00:00-04:00,157.92496457453083,159.62039840768432,157.69557098143002,159.27133178710938,152600,0.0,0.0
2024-10-10 00:00:00-04:00,157.62577532209792,158.9522072471334,157.62577532209792,158.79263305664062,168500,0.0,0.0
2024-10-11 00:00:00-04:00,160.50801550631274,161.48538077936988,159.91960280646023,161.1163787841797,194400,0.0,0.0
2024-10-14 00:00:00-04:00,164.5471496015545,167.3097035833241,163.02125754964115,166.74124145507812,469700,0.0,0.0
2024-10-15 00:00:00-04:00,166.8708837749407,169.2045990501098,166.0431098506034,168.2272186279297,397300,0.0,0.0
2024-10-16 00:00:00-04:00,168.2471783490178,168.74583626660103,165.47464154468156,165.5943145751953,330000,0.0,0.0
2024-10-17 00:00:00-04:00,166.53178529804745,167.86820001373155,166.07302855953967,167.43934631347656,238200,0.0,0.0
2024-10-18 00:00:00-04:00,168.64610780732278,168.64610780732278,167.32964364723057,168.1773681640625,171500,0.0,0.0
2024-10-21 00:00:00-04:00,168.01780020340925,168.0377507811335,165.85362666420463,165.883544921875,217900,0.0,0.0
2024-10-22 00:00:00-04:00,165.27517443013002,165.92342360843475,164.3676134062384,165.36492919921875,228500,0.0,0.0
2024-10-23 00:00:00-04:00,166.06305748263202,167.52911300642305,165.71400606419698,167.1999969482422,318100,0.0,0.0
2024-10-24 00:00:00-04:00,168.32000732421875,168.3300018310547,166.14999389648438,166.5500030517578,547300,0.45,0.0
2024-10-25 00:00:00-04:00,168.9199981689453,169.85000610351562,164.61000061035156,168.91000366210938,518900,0.0,0.0
2024-10-28 00:00:00-04:00,169.89999389648438,171.41000366210938,168.75999450683594,169.10000610351562,350000,0.0,0.0
2024-10-29 00:00:00-04:00,169.02999877929688,169.49000549316406,167.63999938964844,168.6999969482422,338100,0.0,0.0
2024-10-30 00:00:00-04:00,168.35000610351562,170.1999969482422,168.1199951171875,169.02999877929688,290300,0.0,0.0
2024-10-31 00:00:00-04:00,169.08999633789062,170.27999877929688,167.86000061035156,167.91000366210938,329900,0.0,0.0
2024-11-01 00:00:00-04:00,168.10000610351562,170.99000549316406,167.6199951171875,169.41000366210938,316300,0.0,0.0
2024-11-04 00:00:00-05:00,169.6300048828125,170.57000732421875,168.17999267578125,168.25999450683594,191800,0.0,0.0
2024-11-05 00:00:00-05:00,167.74000549316406,170.36000061035156,167.74000549316406,170.30999755859375,206200,0.0,0.0
2024-11-06 00:00:00-05:00,175.14999389648438,175.14999389648438,172.13999938964844,173.16000366210938,264100,0.0,0.0
2024-11-07 00:00:00-05:00,174.1999969482422,175.4600067138672,173.5399932861328,174.7100067138672,412300,0.0,0.0
2024-11-08 00:00:00-05:00,174.6999969482422,177.83999633789062,174.49000549316406,175.75999450683594,309200,0.0,0.0
2024-11-11 00:00:00-05:00,176.32000732421875,178.02999877929688,175.89999389648438,176.14999389648438,189100,0.0,0.0
2024-11-12 00:00:00-05:00,176.64999389648438,177.24000549316406,174.9499969482422,175.6999969482422,179800,0.0,0.0
2024-11-13 00:00:00-05:00,175.5,176.38999938964844,175.0500030517578,175.5,168400,0.0,0.0
2024-11-14 00:00:00-05:00,175.14999389648438,175.7899932861328,173.91000366210938,174.10000610351562,198200,0.0,0.0
2024-11-15 00:00:00-05:00,172.97000122070312,173.75999450683594,166.1699981689453,166.49000549316406,620500,0.0,0.0
2024-11-18 00:00:00-05:00,166.38999938964844,167.82000732421875,164.3300018310547,166.69000244140625,384400,0.0,0.0
2024-11-19 00:00:00-05:00,166.4199981689453,167.6699981689453,166.1999969482422,166.89999389648438,287600,0.0,0.0
2024-11-20 00:00:00-05:00,167.0,168.94000244140625,165.64999389648438,168.72999572753906,221800,0.0,0.0
2024-11-21 00:00:00-05:00,168.69000244140625,170.22999572753906,167.74000549316406,169.8800048828125,205100,0.0,0.0
2024-11-22 00:00:00-05:00,170.17999267578125,172.07000732421875,170.17999267578125,171.50999450683594,241600,0.0,0.0
2024-11-25 00:00:00-05:00,172.0500030517578,174.02000427246094,171.74000549316406,172.5,270100,0.0,0.0
2024-11-26 00:00:00-05:00,172.86000061035156,172.86000061035156,171.16000366210938,172.0399932861328,140300,0.0,0.0
2024-11-27 00:00:00-05:00,172.6699981689453,173.8800048828125,171.52000427246094,171.72999572753906,167200,0.0,0.0
2024-11-29 00:00:00-05:00,172.58999633789062,173.49000549316406,172.08999633789062,172.9600067138672,117300,0.0,0.0
2024-12-02 00:00:00-05:00,172.97999572753906,173.11000061035156,170.83999633789062,172.75999450683594,170900,0.0,0.0
2024-12-03 00:00:00-05:00,173.4499969482422,173.4499969482422,171.08999633789062,172.39999389648438,160100,0.0,0.0
2024-12-04 00:00:00-05:00,171.88999938964844,172.88999938964844,171.02999877929688,172.58999633789062,173400,0.0,0.0
2024-12-05 00:00:00-05:00,172.00999450683594,172.44000244140625,170.52999877929688,171.10000610351562,245000,0.0,0.0
2024-12-06 00:00:00-05:00,171.60000610351562,172.64999389648438,170.85000610351562,171.14999389648438,209200,0.0,0.0
2024-12-09 00:00:00-05:00,171.55999755859375,173.47000122070312,170.22999572753906,170.7899932861328,301700,0.0,0.0
2024-12-10 00:00:00-05:00,170.72000122070312,171.3699951171875,168.19000244140625,170.91000366210938,287000,0.0,0.0
2024-12-11 00:00:00-05:00,171.8800048828125,174.10000610351562,171.75,172.30999755859375,418600,0.0,0.0
2024-12-12 00:00:00-05:00,171.6699981689453,172.60000610351562,170.77999877929688,171.63999938964844,178300,0.0,0.0
2024-12-13 00:00:00-05:00,170.91000366210938,171.0,169.82000732421875,170.1999969482422,153200,0.0,0.0
2024-12-16 00:00:00-05:00,170.13999938964844,170.92999267578125,167.58999633789062,167.6300048828125,236100,0.0,0.0
2024-12-17 00:00:00-05:00,166.89999389648438,166.91000366210938,162.83999633789062,163.08999633789062,511900,0.0,0.0
2024-12-18 00:00:00-05:00,163.69000244140625,164.4199981689453,157.91000366210938,158.2100067138672,468600,0.0,0.0
2024-12-19 00:00:00-05:00,158.50999450683594,161.57000732421875,158.22999572753906,158.8699951171875,404700,0.0,0.0
2024-12-20 00:00:00-05:00,158.72000122070312,159.77999877929688,157.47000122070312,158.17999267578125,730200,0.0,0.0
2024-12-23 00:00:00-05:00,157.1699981689453,158.89999389648438,156.9600067138672,158.52000427246094,191713,0.0,0.0
