Date,Open,High,Low,Close,Volume,Dividends,Stock Splits
2022-01-03 00:00:00-05:00,117.7417621791586,118.28027163726163,114.71263180404685,116.18392181396484,234900,0.0,0.0
2022-01-04 00:00:00-05:00,116.35702650721244,118.20335111744194,115.35693217584434,116.72244262695312,337300,0.0,0.0
2022-01-05 00:00:00-05:00,116.58781136097633,119.37653485819729,116.58781136097633,118.33797454833984,367600,0.0,0.0
2022-01-06 00:00:00-05:00,118.79955169677014,119.24189979950039,117.32826168762276,117.84754180908203,231900,0.0,0.0
2022-01-07 00:00:00-05:00,118.01104926255091,119.03999145160553,117.28982789629833,118.93421173095703,335100,0.0,0.0
2022-01-10 00:00:00-05:00,118.23220465513087,119.13613766682059,117.01093985853582,117.36674499511719,398400,0.0,0.0
2022-01-11 00:00:00-05:00,117.58791394706584,118.26105819681567,116.0973944004296,117.8187026977539,135500,0.0,0.0
2022-01-12 00:00:00-05:00,117.62638846449279,118.28029608591315,115.99162307926325,116.6455307006836,206600,0.0,0.0
2022-01-13 00:00:00-05:00,117.00132751464844,117.63600579025834,115.75121497689473,117.00132751464844,193200,0.0,0.0
2022-01-14 00:00:00-05:00,116.62628221489045,116.8282232829733,115.27039009015085,116.53012084960938,179000,0.0,0.0
2022-01-18 00:00:00-05:00,115.98200183532012,116.74168915122196,114.27030445829881,115.75121307373047,232500,0.0,0.0
2022-01-19 00:00:00-05:00,116.12624673954012,117.22250252012462,115.87622130321522,116.76091766357422,252600,0.0,0.0
2022-01-20 00:00:00-05:00,116.18392472081659,117.61674875719831,114.2510498865644,114.2702865600586,297700,0.0,0.0
2022-01-21 00:00:00-05:00,114.64532720068591,115.4627097890764,111.38540784775036,111.91429901123047,351800,0.0,0.0
2022-01-24 00:00:00-05:00,111.15461293101922,112.75091944863918,109.65447511379894,112.53936004638672,329300,0.0,0.0
2022-01-25 00:00:00-05:00,110.31800511434675,112.45282121802009,108.76016455140191,111.5777359008789,470000,0.0,0.0
2022-01-26 00:00:00-05:00,111.33733096886382,113.03941728409123,110.01990480375571,110.76997375488281,1542500,0.0,0.0
2022-01-27 00:00:00-05:00,111.33732822660114,113.76063575617066,108.34666349702474,109.2890625,263900,0.0,0.0
2022-01-28 00:00:00-05:00,109.46214259205236,110.68340720945164,108.13509094635046,110.63533020019531,323100,0.0,0.0
2022-01-31 00:00:00-05:00,110.59687389266274,112.83746227719654,109.84680498536767,112.79900360107422,486300,0.0,0.0
2022-02-01 00:00:00-05:00,112.59705750622794,114.36645744640926,111.98161596268015,112.97209930419922,214000,0.0,0.0
2022-02-02 00:00:00-05:00,112.5861998960454,112.89491926665629,111.92052812343312,112.50902557373047,363600,0.38,0.0
2022-02-03 00:00:00-05:00,112.33536114021501,113.2422200758321,110.85929654202943,111.12942504882812,167700,0.0,0.0
2022-02-04 00:00:00-05:00,110.63738913782865,111.93979850405942,109.65334863191731,111.19694519042969,242700,0.0,0.0
2022-02-07 00:00:00-05:00,111.54427337664443,111.93981660852552,110.29974637993531,110.6952896118164,263300,0.0,0.0
2022-02-08 00:00:00-05:00,110.9461323342607,112.33537321622518,110.69529553936142,111.95912170410156,204200,0.0,0.0
2022-02-09 00:00:00-05:00,112.95279826192224,113.51235436706477,112.10381455468539,112.44148254394531,295900,0.0,0.0
2022-02-10 00:00:00-05:00,111.44779534059438,113.11681426082345,109.65336906721824,110.56987762451172,267100,0.0,0.0
2022-02-11 00:00:00-05:00,110.98472467347236,112.33537473132662,108.89122113204611,109.70160675048828,230600,0.0,0.0
2022-02-14 00:00:00-05:00,109.70159885168971,110.47340093216346,108.47637096142155,110.07785034179688,266600,0.0,0.0
2022-02-15 00:00:00-05:00,110.61811474230855,112.03628947247007,109.40252904171994,110.07785034179688,263000,0.0,0.0
2022-02-16 00:00:00-05:00,110.22255845732707,111.02330178636964,109.11309578413493,110.65669250488281,271400,0.0,0.0
2022-02-17 00:00:00-05:00,109.94276997608874,112.16169511205923,109.32533134633938,111.53460693359375,362400,0.0,0.0
2022-02-18 00:00:00-05:00,112.18099341347138,117.23627525052963,110.38655999061817,114.26485443115234,462300,0.0,0.0
2022-02-22 00:00:00-05:00,114.32273300161589,115.9435112828922,113.18432912119026,114.90158081054688,437200,0.0,0.0
2022-02-23 00:00:00-05:00,115.51903646035221,116.06894306385576,113.45447430962304,113.54130554199219,321100,0.0,0.0
2022-02-24 00:00:00-05:00,112.17135076836817,113.20363179146504,110.67599439758388,112.75020599365234,349300,0.0,0.0
2022-02-25 00:00:00-05:00,113.02998233948271,117.31346236254952,112.70196389277432,116.70567321777344,260100,0.0,0.0
2022-02-28 00:00:00-05:00,115.25853925782245,117.728293807854,115.0752346321579,117.58358001708984,316300,0.0,0.0
2022-03-01 00:00:00-05:00,117.66076297224882,118.60622003651386,114.35167428799505,114.90158081054688,325700,0.0,0.0
2022-03-02 00:00:00-05:00,114.89195638939553,115.82776410938641,113.84038349856921,114.20698547363281,435100,0.0,0.0
2022-03-03 00:00:00-05:00,114.68934795342238,115.52868215621915,113.27117323624519,115.12348937988281,196100,0.0,0.0
2022-03-04 00:00:00-05:00,113.88860875249837,116.14611760907553,113.54129856526345,115.95317077636719,206700,0.0,0.0
2022-03-07 00:00:00-05:00,115.10419470029356,116.10753449007566,112.34501211850537,112.41254425048828,337300,0.0,0.0
2022-03-08 00:00:00-05:00,112.83701777182353,114.1201354310404,106.1609579010781,106.30567169189453,382800,0.0,0.0
2022-03-09 00:00:00-05:00,107.26079301190579,110.34798683599284,107.26079301190579,109.27711486816406,224800,0.0,0.0
2022-03-10 00:00:00-05:00,107.8878691733967,109.65336139286545,107.51161769848693,108.3027114868164,223200,0.0,0.0
2022-03-11 00:00:00-05:00,109.3060575309679,109.71125031809136,108.28341865241075,108.34130859375,237100,0.0,0.0
2022-03-14 00:00:00-04:00,108.84296968399359,111.82404758724115,108.79472929522117,110.48303985595703,173800,0.0,0.0
2022-03-15 00:00:00-04:00,111.03294489917319,112.80808666313702,110.06819602062433,112.69231414794922,199500,0.0,0.0
2022-03-16 00:00:00-04:00,113.57024437856666,114.91124479252748,110.32868740886923,112.86597442626953,266800,0.0,0.0
2022-03-17 00:00:00-04:00,113.10716948466113,114.3324048233584,111.20661279739497,114.23593139648438,163300,0.0,0.0
2022-03-18 00:00:00-04:00,113.93684878279872,114.64111875032208,112.17135644925892,113.58953857421875,286800,0.0,0.0
2022-03-21 00:00:00-04:00,113.57988744553309,114.48674637616598,112.55724864055169,114.47710418701172,309100,0.0,0.0
2022-03-22 00:00:00-04:00,115.55763174152868,116.21366134288489,113.22294097452149,113.52201080322266,294100,0.0,0.0
2022-03-23 00:00:00-04:00,113.64741513095844,113.93683536372131,110.01995746882471,110.62774658203125,256800,0.0,0.0
2022-03-24 00:00:00-04:00,110.9461239612976,112.12311880186336,109.98137505728631,111.76615905761719,210100,0.0,0.0
2022-03-25 00:00:00-04:00,112.73090337776215,113.1264539453389,111.91086831478684,113.1071548461914,148000,0.0,0.0
2022-03-28 00:00:00-04:00,113.29046465727251,113.42552891567145,110.95577406443361,112.38359832763672,167300,0.0,0.0
2022-03-29 00:00:00-04:00,113.36764504605513,115.3743171596195,113.36764504605513,115.11383819580078,184700,0.0,0.0
2022-03-30 00:00:00-04:00,115.35502376013456,115.35502376013456,114.07190597796584,114.63146209716797,156600,0.0,0.0
2022-03-31 00:00:00-04:00,114.2262695488852,115.60586074997394,113.32905279068832,113.35799407958984,211200,0.0,0.0
2022-04-01 00:00:00-04:00,113.98509023607878,115.42256411470699,113.15540554790266,114.82441711425781,400800,0.0,0.0
2022-04-04 00:00:00-04:00,114.53500122792907,114.53500122792907,111.13908066253808,114.23593139648438,286300,0.0,0.0
2022-04-05 00:00:00-04:00,113.50270571424186,115.00771159194305,113.44481577709584,113.57988739013672,225300,0.0,0.0
2022-04-06 00:00:00-04:00,113.12644996455074,114.7279291963019,112.24852499547583,114.16837310791016,194300,0.0,0.0
2022-04-07 00:00:00-04:00,113.75355279029463,116.34872247352759,112.51866794540692,115.7698745727539,331900,0.0,0.0
2022-04-08 00:00:00-04:00,115.58656100312787,117.92125888759224,115.58656100312787,117.13016510009766,305300,0.0,0.0
2022-04-11 00:00:00-04:00,116.8600285604649,117.98879033797782,114.76652526855469,114.76652526855469,208000,0.0,0.0
2022-04-12 00:00:00-04:00,115.02702064288923,115.95317875240647,112.29677934560748,112.8852767944336,187400,0.0,0.0
2022-04-13 00:00:00-04:00,112.76950992672604,113.8403819046653,112.76950992672604,113.724609375,120200,0.0,0.0
2022-04-14 00:00:00-04:00,113.28081212481268,114.51568951791987,112.8370285216929,113.26152038574219,163300,0.0,0.0
2022-04-18 00:00:00-04:00,112.66338695065294,113.39659825098254,109.57619309734531,109.99103546142578,137100,0.0,0.0
2022-04-19 00:00:00-04:00,110.53128326543148,113.49306214993237,109.50865176746802,113.09751892089844,221600,0.0,0.0
2022-04-20 00:00:00-04:00,113.82106825738325,115.52867041871139,113.19398005650706,115.28748321533203,141200,0.0,0.0
2022-04-21 00:00:00-04:00,116.01104916745051,116.10752258032313,114.16837533165025,114.74723052978516,178200,0.0,0.0
2022-04-22 00:00:00-04:00,114.41922437924455,114.41922437924455,112.32572091727545,112.50902557373047,179900,0.0,0.0
2022-04-25 00:00:00-04:00,112.39323822770886,112.39323822770886,108.22552359385472,111.33201599121094,379600,0.0,0.0
2022-04-26 00:00:00-04:00,110.70286472806217,111.65143805895752,106.89887520531015,107.03438568115234,295300,0.38,0.0
2022-04-27 00:00:00-04:00,107.38284614272077,109.36711095422719,107.02470708436275,107.53771209716797,231500,0.0,0.0
2022-04-28 00:00:00-04:00,107.61515379357023,108.6411638671065,106.03742034665365,108.50565338134766,289200,0.0,0.0
2022-04-29 00:00:00-04:00,108.91219434450936,112.71618447765039,108.91219434450936,111.14813232421875,640200,0.0,0.0
2022-05-02 00:00:00-04:00,111.71918153861282,113.2194854293759,108.47659711977934,109.7542724609375,457000,0.0,0.0
2022-05-03 00:00:00-04:00,109.36710556001088,111.67079836621598,109.02832937814745,110.18017578125,225400,0.0,0.0
2022-05-04 00:00:00-04:00,109.72525045590284,113.03559055493056,109.10577186607662,113.00655364990234,346900,0.0,0.0
2022-05-05 00:00:00-04:00,111.78695577891453,112.45483415653653,108.28303126969195,109.18321228027344,179000,0.0,0.0
2022-05-06 00:00:00-04:00,108.10880111523298,108.13783802089878,106.24068387480183,107.6635513305664,331800,0.0,0.0
2022-05-09 00:00:00-04:00,106.47299250713762,107.53772095525542,103.2400888247913,103.57886505126953,276700,0.0,0.0
2022-05-10 00:00:00-04:00,104.11121333570745,105.14690475468782,100.60728908436653,101.18804931640625,411800,0.0,0.0
2022-05-11 00:00:00-04:00,101.04285515339184,103.9757005366806,100.19107399109295,100.72343444824219,297800,0.0,0.0
2022-05-12 00:00:00-04:00,100.39434997670615,103.24008494162238,99.93941875336048,103.03681182861328,389300,0.0,0.0
2022-05-13 00:00:00-04:00,103.56917091667198,104.81780947090483,103.33686830197682,104.06282043457031,226900,0.0,0.0
2022-05-16 00:00:00-04:00,103.8498822682102,104.94364758398505,102.94001982027594,104.85653686523438,202500,0.0,0.0
2022-05-17 00:00:00-04:00,106.59880739539592,106.85047286650862,104.75005315681338,105.46632385253906,311200,0.0,0.0
2022-05-18 00:00:00-04:00,104.52743996862345,105.40826555473339,100.24916325406431,100.7331314086914,325900,0.0,0.0
2022-05-19 00:00:00-04:00,100.07492264013938,101.24612455026691,98.98115739797906,100.17171478271484,357000,0.0,0.0
2022-05-20 00:00:00-04:00,101.61393667342028,101.92367593504734,94.0737134460984,96.52259063720703,796300,0.0,0.0
2022-05-23 00:00:00-04:00,97.71315567249178,101.23644282217688,96.47419852773663,100.87831115722656,545200,0.0,0.0
2022-05-24 00:00:00-04:00,101.1493467653329,102.23343811645397,99.52321343103539,101.58491516113281,567400,0.0,0.0
2022-05-25 00:00:00-04:00,100.16204494399477,101.89464430772557,99.1941087080584,101.10093688964844,493400,0.0,0.0
2022-05-26 00:00:00-04:00,102.31086887254956,103.52078930569121,101.90433737935837,103.1142578125,188200,0.0,0.0
2022-05-27 00:00:00-04:00,103.53045012742552,105.43728553203222,103.53045012742552,105.39856719970703,178000,0.0,0.0
2022-05-31 00:00:00-04:00,104.61455033929464,105.92126278319036,102.94001739883464,103.65628814697266,306100,0.0,0.0
2022-06-01 00:00:00-04:00,104.04345984632769,104.45967270682254,102.24309792742133,103.8111572265625,313900,0.0,0.0
2022-06-02 00:00:00-04:00,104.14993257946007,106.50201781683108,103.40462496236874,106.30843353271484,145400,0.0,0.0
2022-06-03 00:00:00-04:00,105.2340181095618,106.24067257929818,104.76940551400398,105.31145477294922,139800,0.0,0.0
2022-06-06 00:00:00-04:00,106.07613458918318,107.25701804580146,104.85654017951946,105.74703979492188,207400,0.0,0.0
2022-06-07 00:00:00-04:00,105.15657903352813,106.80206747654094,104.92427643346237,106.64720153808594,132900,0.0,0.0
2022-06-08 00:00:00-04:00,105.46632895853068,105.88254182581218,103.82084034914836,104.25640869140625,157700,0.0,0.0
2022-06-09 00:00:00-04:00,103.34654630355774,104.24672727782973,102.40765437932691,102.43669128417969,193800,0.0,0.0
2022-06-10 00:00:00-04:00,100.25883706255925,102.49476740382059,99.8232613256494,101.82688903808594,266800,0.0,0.0
2022-06-13 00:00:00-04:00,99.57159961244251,99.9200572354336,97.80995602277297,98.73917388916016,252100,0.0,0.0
2022-06-14 00:00:00-04:00,98.35200835280136,99.00052390356062,95.23525227512881,96.32901763916016,227900,0.0,0.0
2022-06-15 00:00:00-04:00,97.08400867401443,97.99386372592087,95.38043880899747,97.15176391601562,283300,0.0,0.0
2022-06-16 00:00:00-04:00,95.71921564085466,95.71921564085466,91.01504485201731,91.73131561279297,620400,0.0,0.0
2022-06-17 00:00:00-04:00,91.46029666727229,95.30300486521759,91.45062262154339,94.37378692626953,458500,0.0,0.0
2022-06-21 00:00:00-04:00,94.83840102467667,95.53530895086821,93.97693093185286,94.07373046875,236100,0.0,0.0
2022-06-22 00:00:00-04:00,93.28001073733672,95.67080685803715,93.15417430982778,95.30299377441406,228200,0.0,0.0
2022-06-23 00:00:00-04:00,95.457876692609,96.13542912121936,94.05436468367671,95.7579345703125,152100,0.0,0.0
2022-06-24 00:00:00-04:00,96.84202450103547,99.35865726718576,96.47420400079217,99.32962036132812,327300,0.0,0.0
2022-06-27 00:00:00-04:00,99.32960913070592,100.81055024014354,98.71980463757276,100.2491455078125,185200,0.0,0.0
2022-06-28 00:00:00-04:00,100.87831833914302,101.02351025529859,98.71014318146077,99.40705108642578,280200,0.0,0.0
2022-06-29 00:00:00-04:00,99.19410257414143,100.55888874233769,98.09064853942277,100.07492065429688,220900,0.0,0.0
2022-06-30 00:00:00-04:00,99.0489145906363,100.18139818912574,98.11969671099618,99.90069580078125,205900,0.0,0.0
2022-07-01 00:00:00-04:00,100.02652790935127,101.31388488620362,98.88437023081858,101.13965606689453,262300,0.0,0.0
2022-07-05 00:00:00-04:00,100.02652656184297,100.02652656184297,97.73252242073897,99.6199951171875,230200,0.0,0.0
2022-07-06 00:00:00-04:00,100.21042341609905,100.22978627360004,98.25519574018351,99.34896087646484,286400,0.0,0.0
2022-07-07 00:00:00-04:00,99.1650602388782,99.98781191256664,98.58429999874357,99.80390167236328,221200,0.0,0.0
2022-07-08 00:00:00-04:00,99.4361022021081,99.72647866958114,96.79363277797151,96.80331420898438,208100,0.0,0.0
2022-07-11 00:00:00-04:00,96.60970556940609,96.90977080003546,95.31267466233992,96.35804748535156,186900,0.0,0.0
2022-07-12 00:00:00-04:00,96.28061505746588,98.58430055643085,96.0386310073103,97.28726959228516,284300,0.0,0.0
2022-07-13 00:00:00-04:00,96.53228363572835,98.06161726937513,96.3193364831938,97.442138671875,202500,0.0,0.0
2022-07-14 00:00:00-04:00,96.38708692883118,96.70650764174205,95.18684074421463,96.1160659790039,199800,0.0,0.0
2022-07-15 00:00:00-04:00,97.57765884034727,97.57765884034727,96.02896219285336,96.80331420898438,195300,0.0,0.0
2022-07-18 00:00:00-04:00,97.34533995033493,97.71315303501639,94.56736049451118,94.95453643798828,179900,0.0,0.0
2022-07-19 00:00:00-04:00,95.39012573860374,97.84867745282509,95.39012573860374,97.79060363769531,635400,0.0,0.0
2022-07-20 00:00:00-04:00,97.4421316415043,99.19410111610162,97.4324575969179,98.55525970458984,458900,0.0,0.0
2022-07-21 00:00:00-04:00,98.6423811796512,100.27818832760123,98.32296046294894,100.16204071044922,138900,0.0,0.0
2022-07-22 00:00:00-04:00,100.28787204269864,100.64601110153538,99.0489148663958,100.27819061279297,214600,0.0,0.0
2022-07-25 00:00:00-04:00,100.3943597140703,101.15903031910753,99.61033363127126,100.58794403076172,267400,0.0,0.0
2022-07-26 00:00:00-04:00,100.170194048027,100.91823703799618,98.97525976217274,100.86966705322266,262200,0.38,0.0
2022-07-27 00:00:00-04:00,101.26797713599707,103.50240404727282,100.68508541492916,103.00694274902344,229200,0.0,0.0
2022-07-28 00:00:00-04:00,103.05551488676709,104.74590301513672,102.15203017107694,104.74590301513672,249800,0.0,0.0
2022-07-29 00:00:00-04:00,104.11444748344815,106.36830108534534,103.35668744489485,104.68762969970703,424400,0.0,0.0
2022-08-01 00:00:00-04:00,103.26925156103125,105.55224851893246,102.59892198761993,105.11507415771484,277000,0.0,0.0
2022-08-02 00:00:00-04:00,104.7847744453481,104.95964271227939,102.81265351998869,103.55097961425781,209700,0.0,0.0
2022-08-03 00:00:00-04:00,104.26987818393255,105.71739419156404,103.4052538816942,104.57103729248047,260700,0.0,0.0
2022-08-04 00:00:00-04:00,104.14357656014805,104.16301048309464,102.84178537378442,103.4052505493164,292600,0.0,0.0
2022-08-05 00:00:00-04:00,102.65720574797297,103.62869441577672,102.09374054179791,102.63777923583984,174600,0.0,0.0
2022-08-08 00:00:00-04:00,103.10408951162906,104.92077598633239,102.98751561524125,104.21158599853516,219300,0.0,0.0
2022-08-09 00:00:00-04:00,104.68762078168645,104.92077598633239,103.45382602453313,104.21158599853516,249200,0.0,0.0
2022-08-10 00:00:00-04:00,106.11571481505423,107.58265742729695,104.96935784336637,106.64031219482422,152900,0.0,0.0
2022-08-11 00:00:00-04:00,107.48550093623498,108.11697002520668,106.4265818920995,106.5042953491211,171100,0.0,0.0
2022-08-12 00:00:00-04:00,107.36892516876607,107.98096777800639,106.99976214030221,107.9129638671875,201300,0.0,0.0
2022-08-15 00:00:00-04:00,107.52435745984268,109.22446249269318,107.52435745984268,108.71929168701172,146500,0.0,0.0
2022-08-16 00:00:00-04:00,107.99068971917984,109.05932582926368,107.55351534787005,108.87474060058594,187700,0.0,0.0
2022-08-17 00:00:00-04:00,107.83524403755561,108.29184490541572,106.91233275153192,107.86438751220703,173100,0.0,0.0
2022-08-18 00:00:00-04:00,107.77695708825279,107.9712518605092,106.83461187788117,107.86438751220703,197300,0.0,0.0
2022-08-19 00:00:00-04:00,108.00038607847436,108.0878239068048,106.42657928722475,107.0191879272461,253400,0.0,0.0
2022-08-22 00:00:00-04:00,106.05742428311224,106.19343211416802,104.67791204704888,104.84306335449219,178300,0.0,0.0
2022-08-23 00:00:00-04:00,104.80420188543796,105.34824061618568,102.98752269767229,103.8424301147461,178000,0.0,0.0
2022-08-24 00:00:00-04:00,104.308738262776,104.9887773480992,103.67726916247865,104.3864517211914,183000,0.0,0.0
2022-08-25 00:00:00-04:00,104.4738919450044,105.86312103271484,104.4738919450044,105.86312103271484,132900,0.0,0.0
2022-08-26 00:00:00-04:00,106.4265871765713,106.4265871765713,101.19997336807596,101.43313598632812,152000,0.0,0.0
2022-08-29 00:00:00-04:00,101.00567708276391,101.49142141236314,99.8593201684349,101.03482055664062,146800,0.0,0.0
2022-08-30 00:00:00-04:00,101.46227689185052,101.68571513051394,99.79131522936676,101.0833969116211,148900,0.0,0.0
2022-08-31 00:00:00-04:00,101.40397517538882,101.7731455788876,99.8204514603972,99.87873840332031,180300,0.0,0.0
2022-09-01 00:00:00-04:00,99.44158657615682,99.93704790169005,98.44095437437831,99.69417572021484,212200,0.0,0.0
2022-09-02 00:00:00-04:00,100.39364079788524,101.20969517710823,97.84834509430205,98.53810119628906,206000,0.0,0.0
2022-09-06 00:00:00-04:00,98.3729442885735,98.97526251724804,96.96428127726792,97.4694595336914,159300,0.0,0.0
2022-09-07 00:00:00-04:00,97.77061689954385,100.67536588048566,97.75119038781511,100.2964859008789,164200,0.0,0.0
2022-09-08 00:00:00-04:00,99.34442464384222,102.02572779829069,99.21812638436543,101.8994369506836,137900,0.0,0.0
2022-09-09 00:00:00-04:00,102.66691631764351,103.77441273703431,101.69542771032738,103.37610626220703,197100,0.0,0.0
2022-09-12 00:00:00-04:00,104.12416388875646,105.1830830621238,103.69670646955522,104.05615997314453,154500,0.0,0.0
2022-09-13 00:00:00-04:00,102.16174114979087,102.73491584598598,101.01538434553109,101.05423736572266,271700,0.0,0.0
2022-09-14 00:00:00-04:00,100.8502387857127,101.33598313191014,99.52901357110605,100.62680053710938,250700,0.0,0.0
2022-09-15 00:00:00-04:00,100.30620731763389,102.39490948507253,100.27706384281134,102.20060729980469,423000,0.0,0.0
2022-09-16 00:00:00-04:00,101.35540293306964,101.35540293306964,98.50894116451715,99.71358489990234,579400,0.0,0.0
2022-09-19 00:00:00-04:00,98.94612310922372,101.56914705951068,98.93640614685118,101.54971313476562,194400,0.0,0.0
2022-09-20 00:00:00-04:00,100.50050314053937,100.50050314053937,97.81919966267736,98.29522705078125,157500,0.0,0.0
2022-09-21 00:00:00-04:00,98.8878363137289,99.36386370454039,96.78941715021021,96.82827758789062,173500,0.0,0.0
2022-09-22 00:00:00-04:00,96.31338680758618,96.31338680758618,94.49670031402535,95.32247161865234,199200,0.0,0.0
2022-09-23 00:00:00-04:00,94.16640160573118,95.50705336649696,94.16640160573118,95.28361511230469,274900,0.0,0.0
2022-09-26 00:00:00-04:00,94.7201437390094,95.64305499530806,93.68065117598944,94.6327133178711,364000,0.0,0.0
2022-09-27 00:00:00-04:00,95.1961709040066,95.98308175194913,92.51486756188235,93.32119750976562,238600,0.0,0.0
2022-09-28 00:00:00-04:00,93.99153266493809,95.69163790693955,93.31149353288576,95.43904876708984,237000,0.0,0.0
2022-09-29 00:00:00-04:00,94.4481378262551,94.48699826582995,93.5252190630624,94.0109634399414,206400,0.0,0.0
2022-09-30 00:00:00-04:00,93.37949074175435,94.97273151834811,92.16512994179752,92.32056427001953,471500,0.0,0.0
2022-10-03 00:00:00-04:00,93.70979545491807,95.22531539596609,92.93260897237536,94.66185760498047,274200,0.0,0.0
2022-10-04 00:00:00-04:00,96.26479502836986,96.98370187822374,95.70133731312208,96.40081024169922,262900,0.0,0.0
2022-10-05 00:00:00-04:00,95.29331473391176,96.64369072833762,94.26353917331024,95.38075256347656,201300,0.0,0.0
2022-10-06 00:00:00-04:00,94.8755870155402,95.40018437459374,93.57378834431347,94.95330047607422,202100,0.0,0.0
2022-10-07 00:00:00-04:00,94.16638727578263,94.16638727578263,90.93132856264016,91.30049896240234,119000,0.0,0.0
2022-10-10 00:00:00-04:00,91.6988240971188,92.74803374401823,91.23251363974423,91.67939758300781,177300,0.0,0.0
2022-10-11 00:00:00-04:00,91.12563931738849,92.92289185689488,90.63989498715054,92.03883361816406,369800,0.0,0.0
2022-10-12 00:00:00-04:00,92.05826967741172,92.05826967741172,90.61074620317915,90.70790100097656,147400,0.0,0.0
2022-10-13 00:00:00-04:00,88.47347445229413,92.32056876441929,87.65742751269354,91.86396789550781,237000,0.0,0.0
2022-10-14 00:00:00-04:00,92.680016689808,93.18518751566972,91.42679546896231,92.369140625,319300,0.0,0.0
2022-10-17 00:00:00-04:00,93.28234970301047,94.59386548984669,93.28234970301047,94.5452880859375,344900,0.0,0.0
2022-10-18 00:00:00-04:00,96.42025837888582,97.12944842717792,95.30304483469078,96.44940185546875,281300,0.0,0.0
2022-10-19 00:00:00-04:00,95.89564883070547,96.38139318143047,94.80757881680805,95.40990447998047,359500,0.0,0.0
2022-10-20 00:00:00-04:00,95.28361168402189,95.88592992310433,92.70916519503372,93.33091735839844,185600,0.0,0.0
2022-10-21 00:00:00-04:00,92.83546121446595,95.1281752237361,91.83482900256439,94.73957824707031,176400,0.0,0.0
2022-10-24 00:00:00-04:00,95.10873124312313,95.98307242707695,94.4966887084207,95.09901428222656,158500,0.0,0.0
2022-10-25 00:00:00-04:00,94.0847457242299,96.97155776613539,93.597108404163,96.75699615478516,292500,0.38,0.0
2022-10-26 00:00:00-04:00,97.38117205813707,98.55150609951095,96.51317821718118,96.63996124267578,271900,0.0,0.0
2022-10-27 00:00:00-04:00,96.6594709024473,98.15163992250055,96.42540707047455,96.63996124267578,216700,0.0,0.0
2022-10-28 00:00:00-04:00,99.42924146767989,101.54559298281465,96.76674600397702,98.6295166015625,445300,0.0,0.0
2022-10-31 00:00:00-04:00,97.48844874875874,98.11262390150411,96.64971199211561,96.69847869873047,372900,0.0,0.0
2022-11-01 00:00:00-04:00,97.13735118574695,97.13735118574695,94.48460301457354,94.81620025634766,301300,0.0,0.0
2022-11-02 00:00:00-04:00,94.78694809358534,95.33309953082768,92.2317257650846,92.41703033447266,268400,0.0,0.0
2022-11-03 00:00:00-04:00,91.9488872434991,92.67058835738494,90.26166636799188,92.36825561523438,278300,0.0,0.0
2022-11-04 00:00:00-04:00,94.0554889664151,96.33762805982337,93.85068218424422,96.32787322998047,209100,0.0,0.0
2022-11-07 00:00:00-05:00,96.73749561582832,98.0346052547577,95.55741417366407,98.0053482055664,180700,0.0,0.0
2022-11-08 00:00:00-05:00,98.50273491179819,99.24394569355572,97.6542433284407,97.86880493164062,153100,0.0,0.0
2022-11-09 00:00:00-05:00,97.75177536009339,98.38569789053872,96.11331375242877,96.66921997070312,165300,0.0,0.0
2022-11-10 00:00:00-05:00,100.28748009162447,100.69709360185104,98.54173781813047,99.79984283447266,266000,0.0,0.0
2022-11-11 00:00:00-05:00,100.29724528852903,102.48186594582045,98.95136889848328,101.6723861694336,292600,0.0,0.0
2022-11-14 00:00:00-05:00,101.0482043347306,102.66715634052619,101.0482043347306,101.81867218017578,238400,0.0,0.0
2022-11-15 00:00:00-05:00,103.21330621428406,104.36413046755662,101.7016277030284,102.10149383544922,272500,0.0,0.0
2022-11-16 00:00:00-05:00,102.26729919618415,103.27183088339511,102.11125168244985,102.32581329345703,139300,0.0,0.0
2022-11-17 00:00:00-05:00,101.14572702617149,102.47210106632555,101.14572702617149,102.02347564697266,162700,0.0,0.0
2022-11-18 00:00:00-05:00,103.48638262905804,104.28610745882128,102.02347081065547,103.4181137084961,213200,0.0,0.0
2022-11-21 00:00:00-05:00,103.47663751464346,104.06180080878913,102.33556797494614,102.54037475585938,193300,0.0,0.0
2022-11-22 00:00:00-05:00,102.6378862815607,104.02278172633092,102.6378862815607,103.37909698486328,284000,0.0,0.0
2022-11-23 00:00:00-05:00,103.36935558825755,104.13982343614973,102.96949686055054,103.56441497802734,202100,0.0,0.0
2022-11-25 00:00:00-05:00,103.91550353040702,103.91550353040702,102.94997639410053,103.29132843017578,114700,0.0,0.0
2022-11-28 00:00:00-05:00,102.44284944196406,102.88172005521919,100.68735210743344,100.94092559814453,208500,0.0,0.0
2022-11-29 00:00:00-05:00,100.45329009985048,101.52609073897939,100.38502117119923,100.75562286376953,181400,0.0,0.0
2022-11-30 00:00:00-05:00,100.34600536348798,103.55465976599352,98.99037423280163,103.5156478881836,297900,0.0,0.0
2022-12-01 00:00:00-05:00,104.13982879131224,105.11510346804789,103.87650790252593,104.4421615600586,156600,0.0,0.0
2022-12-02 00:00:00-05:00,103.63268313659964,105.86606290782451,103.47663562593972,105.37842559814453,167400,0.0,0.0
2022-12-05 00:00:00-05:00,104.21784560514284,104.28611453033402,103.06702126566667,104.06179809570312,153800,0.0,0.0
2022-12-06 00:00:00-05:00,103.91551476892162,104.4324091321323,102.76469040826663,104.35438537597656,247800,0.0,0.0
2022-12-07 00:00:00-05:00,104.0910602658664,105.48570322721312,103.57415848292639,103.67169189453125,152800,0.0,0.0
2022-12-08 00:00:00-05:00,103.8179884903406,105.27115314580848,103.8179884903406,105.26139831542969,190800,0.0,0.0
2022-12-09 00:00:00-05:00,105.16386696238837,106.2854342944891,104.98831722831386,105.38817596435547,316700,0.0,0.0
2022-12-12 00:00:00-05:00,105.77827835254486,106.09036591549497,104.83226083464011,105.40767669677734,209100,0.0,0.0
2022-12-13 00:00:00-05:00,107.65079825687944,108.36275192656184,104.92003408009667,105.53445434570312,328400,0.0,0.0
2022-12-14 00:00:00-05:00,105.75878773122237,107.55328955475699,104.57870627190239,105.56372833251953,302500,0.0,0.0
2022-12-15 00:00:00-05:00,105.03707866587244,105.86606808547613,104.58845321191626,104.98831939697266,230000,0.0,0.0
2022-12-16 00:00:00-05:00,104.46167349406672,105.58324088487514,103.75947452101255,104.78351593017578,540600,0.0,0.0
2022-12-19 00:00:00-05:00,104.66648692342139,105.68077356649746,103.16456290044849,103.63269805908203,269800,0.0,0.0
2022-12-20 00:00:00-05:00,103.79847083696468,105.45643459858334,103.64242333712774,104.4714126586914,193300,0.0,0.0
2022-12-21 00:00:00-05:00,105.31015423995657,107.90438079833984,104.9102880836928,107.90438079833984,388500,0.0,0.0
2022-12-22 00:00:00-05:00,106.79256922537186,108.06042918791105,104.80300813869356,105.87580871582031,213800,0.0,0.0
2022-12-23 00:00:00-05:00,106.44147117254748,107.47525988619053,105.6710033317316,107.28996276855469,161500,0.0,0.0
2022-12-27 00:00:00-05:00,107.18269024306241,108.27499313707996,106.9193619091436,108.12870788574219,101700,0.0,0.0
2022-12-28 00:00:00-05:00,108.31399440702319,109.1429837674232,106.31468594679085,106.4707260131836,162700,0.0,0.0
2022-12-29 00:00:00-05:00,107.20217528351922,108.42126845434005,106.67552614083412,108.05066680908203,128700,0.0,0.0
2022-12-30 00:00:00-05:00,107.76784355981795,108.00190738097093,106.32443387440595,107.26070404052734,172300,0.0,0.0
2023-01-03 00:00:00-05:00,107.84587819498947,108.32376071494666,106.74381302105569,107.5337905883789,239200,0.0,0.0
2023-01-04 00:00:00-05:00,108.50904677939768,109.43555461076441,107.58253150727676,108.47978973388672,217200,0.0,0.0
2023-01-05 00:00:00-05:00,107.90438386088975,110.23528961821611,106.42196970556171,109.34779357910156,310000,0.0,0.0
2023-01-06 00:00:00-05:00,110.5766353388575,111.57141963249171,109.95246016827544,111.23982238769531,181500,0.0,0.0
2023-01-09 00:00:00-05:00,111.79571495362444,112.81975617047314,110.47909584678617,110.52786254882812,161800,0.0,0.0
2023-01-10 00:00:00-05:00,110.39134052424086,111.51290042431526,110.1670240797729,110.62540435791016,163000,0.0,0.0
2023-01-11 00:00:00-05:00,110.77169108746156,111.60067301105941,110.64490062711108,110.65465545654297,141300,0.0,0.0
2023-01-12 00:00:00-05:00,110.87896910155528,110.97649507115837,109.62086400363823,110.69366455078125,179100,0.0,0.0
2023-01-13 00:00:00-05:00,110.41082785334501,111.48362834046898,110.41082785334501,111.15203857421875,177700,0.0,0.0
2023-01-17 00:00:00-05:00,111.35685802246256,111.69820265625667,110.0402387545396,111.23982238769531,204500,0.0,0.0
2023-01-18 00:00:00-05:00,111.6591808961368,111.766461691657,109.15272560587775,109.20149230957031,118900,0.0,0.0
2023-01-19 00:00:00-05:00,108.83088174001723,109.63061400148068,107.60204118381434,109.22099304199219,177400,0.0,0.0
2023-01-20 00:00:00-05:00,109.67937380115757,110.48885345458984,108.92841567979852,110.48885345458984,180800,0.0,0.0
2023-01-23 00:00:00-05:00,110.40108901780063,110.91799084009217,109.67938784966053,110.55713653564453,165500,0.0,0.0
2023-01-24 00:00:00-05:00,110.23529235727217,110.35232799379355,108.99669682729662,110.04998779296875,172600,0.0,0.0
2023-01-25 00:00:00-05:00,109.07471005247224,109.7281497035842,107.75809080213567,109.29902648925781,181200,0.0,0.0
2023-01-26 00:00:00-05:00,109.72814501141445,110.09874667291383,109.05520317058878,110.001220703125,139000,0.0,0.0
2023-01-27 00:00:00-05:00,109.72814927014919,110.14751765319666,109.09421928078608,109.94271087646484,204300,0.0,0.0
2023-01-30 00:00:00-05:00,108.9479281647212,110.52787574602776,108.7041095069072,110.4498519897461,200200,0.0,0.0
2023-01-31 00:00:00-05:00,111.01550193534723,113.44393344037864,110.5181098398454,112.78074645996094,630900,0.0,0.0
2023-02-01 00:00:00-05:00,111.98817529307878,115.52052472025264,111.9294682831346,114.5713882446289,190900,0.38,0.0
2023-02-02 00:00:00-05:00,114.57138889039847,115.7945013730372,114.0723643724879,114.7768783569336,271600,0.0,0.0
2023-02-03 00:00:00-05:00,114.0821484321196,114.0821484321196,112.73183488511435,112.93731689453125,284100,0.0,0.0
2023-02-06 00:00:00-05:00,112.09581247400796,113.0155954666978,110.99990844726562,110.99990844726562,180400,0.0,0.0
2023-02-07 00:00:00-05:00,110.24645778648217,110.4030197574336,108.32861843404118,109.77678680419922,189100,0.0,0.0
2023-02-08 00:00:00-05:00,109.3168985454117,109.74743651284261,108.17206709414592,108.18184661865234,138800,0.0,0.0
2023-02-09 00:00:00-05:00,109.08206801886405,109.4049640438675,106.89024505321868,106.90003204345703,180200,0.0,0.0
2023-02-10 00:00:00-05:00,106.65540362822738,106.87067260981264,105.56927919589137,106.86088562011719,217900,0.0,0.0
2023-02-13 00:00:00-05:00,107.04680442246669,108.1622823932468,106.90002943361962,107.43820190429688,184900,0.0,0.0
2023-02-14 00:00:00-05:00,107.43819597350803,108.80807588636469,107.30120798222237,107.39905548095703,122500,0.0,0.0
2023-02-15 00:00:00-05:00,106.47928907777968,108.0253051794531,106.2346665603739,108.01551818847656,155200,0.0,0.0
2023-02-16 00:00:00-05:00,106.38143267257288,109.1309871495159,105.85304718330413,108.3090591430664,372200,0.0,0.0
2023-02-17 00:00:00-05:00,112.52634981894491,118.67126581461193,111.56742633576187,114.18000030517578,590700,0.0,0.0
2023-02-21 00:00:00-05:00,113.99408350673167,113.99408350673167,110.67700304740676,112.60462951660156,463900,0.0,0.0
2023-02-22 00:00:00-05:00,112.14473824567753,113.50483873327579,111.96860974903169,112.25237274169922,257700,0.0,0.0
2023-02-23 00:00:00-05:00,112.34042478595228,113.07429222242237,110.6476414130545,112.0958023071289,196400,0.0,0.0
2023-02-24 00:00:00-05:00,111.3521634037615,112.56548889623957,110.5595814386297,112.3012924194336,215100,0.0,0.0
2023-02-27 00:00:00-05:00,113.34827783428503,114.72795231540253,113.02538180842211,114.18000030517578,215300,0.0,0.0
2023-02-28 00:00:00-05:00,114.1408489617741,115.56944332787148,114.08213449105398,114.20934295654297,261500,0.0,0.0
2023-03-01 00:00:00-05:00,113.68095999149226,115.08020088539392,113.68095999149226,114.93342590332031,194700,0.0,0.0
2023-03-02 00:00:00-05:00,114.89429070070614,116.44030664786749,114.7083826824528,116.02934265136719,205000,0.0,0.0
2023-03-03 00:00:00-05:00,116.41095563455673,117.66342163085938,115.31504415514881,117.66342163085938,225400,0.0,0.0
2023-03-06 00:00:00-05:00,117.54600638170025,117.60472086077684,114.07237120220516,114.3169937133789,265900,0.0,0.0
2023-03-07 00:00:00-05:00,114.19956377353569,114.81600976859379,113.72010577737939,114.1604232788086,247100,0.0,0.0
2023-03-08 00:00:00-05:00,113.90602175985846,114.18977728362199,112.692688813863,112.84925079345703,281700,0.0,0.0
2023-03-09 00:00:00-05:00,113.46568350187745,113.90600841894931,112.06644270060367,112.10558319091797,189700,0.0,0.0
2023-03-10 00:00:00-05:00,112.17409308545392,112.17409308545392,109.86485608652902,110.13883209228516,201400,0.0,0.0
2023-03-13 00:00:00-04:00,109.05269687717401,110.6769937020818,109.05269687717401,109.56151580810547,245400,0.0,0.0
2023-03-14 00:00:00-04:00,111.42065752794538,112.7807580129058,111.04882655503299,112.60462951660156,261500,0.0,0.0
2023-03-15 00:00:00-04:00,111.01946025436038,111.30322321377258,107.8002276717278,108.98419952392578,256200,0.0,0.0
2023-03-16 00:00:00-04:00,107.84917154248042,110.84334862432897,107.58497505567823,110.25625610351562,209200,0.0,0.0
2023-03-17 00:00:00-04:00,110.49109039168059,110.49109039168059,107.58497386085018,108.37755584716797,393800,0.0,0.0
2023-03-20 00:00:00-04:00,109.39518705084062,111.0292635900135,109.39518705084062,110.3541030883789,146400,0.0,0.0
2023-03-21 00:00:00-04:00,111.67506034275999,111.76312832418068,110.05077083445002,110.58893585205078,141200,0.0,0.0
2023-03-22 00:00:00-04:00,110.37368277801338,111.76313688443405,109.72787574908482,109.83551025390625,176700,0.0,0.0
2023-03-23 00:00:00-04:00,109.73765315219785,111.00968565168763,108.42647269224416,109.31690216064453,156900,0.0,0.0
2023-03-24 00:00:00-04:00,108.63195620067049,110.55958268953378,107.65346620350424,110.5400161743164,148800,0.0,0.0
2023-03-27 00:00:00-04:00,111.01946323660796,112.36977661205927,111.01946323660796,111.52828216552734,170100,0.0,0.0
2023-03-28 00:00:00-04:00,111.32280122692488,112.64376866606705,110.70635522986831,112.54591369628906,189800,0.0,0.0
2023-03-29 00:00:00-04:00,113.20151127067999,113.4461337723694,112.68291276154427,113.37763977050781,138700,0.0,0.0
2023-03-30 00:00:00-04:00,113.77881321274664,114.25827121069774,112.57527472284893,113.4559097290039,148000,0.0,0.0
2023-03-31 00:00:00-04:00,114.01365914216875,115.72601675671618,114.01365914216875,115.64774322509766,206300,0.0,0.0
2023-04-03 00:00:00-04:00,115.39331778179478,116.2543862329776,115.11934179574959,116.09783172607422,151100,0.0,0.0
2023-04-04 00:00:00-04:00,115.95107218702786,115.95107218702786,114.26806808826395,115.13892364501953,183100,0.0,0.0
2023-04-05 00:00:00-04:00,115.20740478824561,116.63599922146386,114.70838028803446,116.51858520507812,249700,0.0,0.0
2023-04-06 00:00:00-04:00,116.77298416349359,116.77298416349359,115.39331725004219,116.49900817871094,159300,0.0,0.0
2023-04-10 00:00:00-04:00,115.83364062516607,116.65557608662692,115.43246361711488,116.53815460205078,174600,0.0,0.0
2023-04-11 00:00:00-04:00,116.63598717084577,117.40899504842493,116.27395070401352,116.48921966552734,121800,0.0,0.0
2023-04-12 00:00:00-04:00,116.76320485690785,117.09588784896819,115.64772693662151,115.84342193603516,134300,0.0,0.0
2023-04-13 00:00:00-04:00,115.8042883789692,117.41879834932972,115.3541838811311,117.20352935791016,110700,0.0,0.0
2023-04-14 00:00:00-04:00,116.61645032844422,117.47751892828988,115.7651612545845,116.63601684570312,233600,0.0,0.0
2023-04-17 00:00:00-04:00,116.92955014017048,117.23287963867188,115.9804136851727,117.23287963867188,122400,0.0,0.0
2023-04-18 00:00:00-04:00,117.15461668690735,117.15461668690735,115.51075310828533,116.03913116455078,261700,0.0,0.0
2023-04-19 00:00:00-04:00,115.82384931308466,116.86104619278437,115.52051237512158,116.15653228759766,252900,0.0,0.0
2023-04-20 00:00:00-04:00,116.44031202128001,117.223107020983,115.97063352840094,116.46966552734375,296800,0.0,0.0
2023-04-21 00:00:00-04:00,116.7534299567376,118.46578750741529,116.24461842640514,117.99610900878906,361500,0.0,0.0
2023-04-24 00:00:00-04:00,118.26029276247478,118.80824473079451,117.1643813605496,117.81018829345703,229600,0.0,0.0
2023-04-25 00:00:00-04:00,116.86106627113051,117.36987780936104,115.34440371658748,115.53031921386719,167500,0.0,0.0
2023-04-26 00:00:00-04:00,114.49311523060877,115.0508542234253,113.12322775860564,113.26021575927734,247200,0.0,0.0
2023-04-27 00:00:00-04:00,113.26020723587565,114.072355653944,112.16429584768879,114.06256866455078,361900,0.0,0.0
2023-04-28 00:00:00-04:00,114.00387354988807,116.99805060195773,114.00387354988807,115.96085357666016,586700,0.0,0.0
2023-05-01 00:00:00-04:00,116.84148544332882,119.86501572606133,116.84148544332882,119.02351379394531,283100,0.0,0.0
2023-05-02 00:00:00-04:00,118.14288317086096,118.27987117672369,113.24065353544547,117.88848114013672,359200,0.0,0.0
2023-05-03 00:00:00-04:00,118.25165760847847,118.78171490676155,117.53509658795517,117.69215393066406,294300,0.38,0.0
2023-05-04 00:00:00-04:00,117.73142656290354,117.93755872305542,116.20996527604514,116.61241912841797,192500,0.0,0.0
2023-05-05 00:00:00-04:00,116.79891023415145,119.63569303395245,116.79891023415145,119.4590072631836,171100,0.0,0.0
2023-05-08 00:00:00-04:00,119.6160668606866,120.08722393233099,118.438166692669,119.2626953125,200400,0.0,0.0
2023-05-09 00:00:00-04:00,118.64429522057912,118.80134507669057,117.48602351224487,118.35963439941406,185600,0.0,0.0
2023-05-10 00:00:00-04:00,118.8602376605255,119.33140220597461,116.31793367529332,117.41731262207031,227200,0.0,0.0
2023-05-11 00:00:00-04:00,117.27989407350391,117.62344766253574,116.76946517930813,117.08357238769531,203900,0.0,0.0
2023-05-12 00:00:00-04:00,117.47619684018578,118.64428641814759,117.15227170679884,118.56575775146484,168400,0.0,0.0
2023-05-15 00:00:00-04:00,118.36944486679788,118.84060941294503,117.82957709333841,118.35963439941406,148300,0.0,0.0
2023-05-16 00:00:00-04:00,118.35963697918922,118.35963697918922,116.03327555552497,116.14125061035156,180800,0.0,0.0
2023-05-17 00:00:00-04:00,116.63204222599711,116.84799233312319,115.29708473549634,116.77928161621094,168600,0.0,0.0
2023-05-18 00:00:00-04:00,115.99401185542538,116.857812298782,115.61119392763109,116.79891204833984,94000,0.0,0.0
2023-05-19 00:00:00-04:00,117.67253334838315,118.05535130997553,116.41610439865353,116.89707946777344,156900,0.0,0.0
2023-05-22 00:00:00-04:00,116.48479972892893,117.31914626601181,115.71916390692569,115.95474243164062,229600,0.0,0.0
2023-05-23 00:00:00-04:00,115.23819743180502,116.26885823429332,114.7572223906438,115.02224731445312,155400,0.0,0.0
2023-05-24 00:00:00-04:00,115.03205806094066,115.03205806094066,112.91182884773758,113.00017547607422,297800,0.0,0.0
2023-05-25 00:00:00-04:00,112.1854616347367,113.15722965008982,111.35111505634639,111.44927215576172,196800,0.0,0.0
2023-05-26 00:00:00-04:00,110.90939246562569,112.38177136503076,110.87012812963945,112.05785369873047,210200,0.0,0.0
2023-05-30 00:00:00-04:00,112.10692956090803,112.60754048832791,110.92902942582099,111.2725830078125,136100,0.0,0.0
2023-05-31 00:00:00-04:00,111.35111314041339,111.46889866212248,109.6333377190282,110.4186019897461,360800,0.0,0.0
2023-06-01 00:00:00-04:00,110.74253565465708,111.42964288040207,109.9768997491392,110.8603286743164,170700,0.0,0.0
2023-06-02 00:00:00-04:00,111.9106143110087,112.63698580448809,111.56706073226212,112.05785369873047,353000,0.0,0.0
2023-06-05 00:00:00-04:00,111.70449030239857,112.12657258386996,110.80142548673189,110.97811126708984,237400,0.0,0.0
2023-06-06 00:00:00-04:00,110.95846843146386,112.54864024816291,110.95846843146386,112.21489715576172,266900,0.0,0.0
2023-06-07 00:00:00-04:00,112.25416759300819,113.56948914499125,111.9596888183431,113.28483581542969,264100,0.0,0.0
2023-06-08 00:00:00-04:00,113.43206874182783,113.85415099525619,112.67625086373383,113.07869720458984,270500,0.0,0.0
2023-06-09 00:00:00-04:00,112.9412812011952,113.441892151164,112.28362038763048,112.69588470458984,295000,0.0,0.0
2023-06-12 00:00:00-04:00,112.56827265525595,113.46151194068716,112.19527270480974,113.26519775390625,353000,0.0,0.0
2023-06-13 00:00:00-04:00,113.57930154712804,114.24678024667686,112.6467979544655,113.08850860595703,340600,0.0,0.0
2023-06-14 00:00:00-04:00,113.48113934252287,113.82469288807876,112.24433908961599,113.0394287109375,225200,0.0,0.0
2023-06-15 00:00:00-04:00,112.8823871503775,114.25660901346778,112.8333048560538,113.91305541992188,362600,0.0,0.0
2023-06-16 00:00:00-04:00,113.52041136526161,115.05168297999425,113.23575055425765,114.99279022216797,975300,0.0,0.0
2023-06-20 00:00:00-04:00,114.72775359537623,114.79646430660368,113.57929992675781,113.57929992675781,297000,0.0,0.0
2023-06-21 00:00:00-04:00,113.01980117361711,113.13759417892268,111.33147220876805,111.52779388427734,317800,0.0,0.0
2023-06-22 00:00:00-04:00,111.8517179195205,111.95969297497932,110.28118187044677,111.94988250732422,266200,0.0,0.0
2023-06-23 00:00:00-04:00,110.82105293963065,111.63577105846272,110.00633482079857,110.7523422241211,366000,0.0,0.0
2023-06-26 00:00:00-04:00,110.97810720466035,112.26398991588081,110.97810720466035,111.51798248291016,142300,0.0,0.0
2023-06-27 00:00:00-04:00,111.73394059924614,112.70570868081026,111.1449904737196,112.60755157470703,218300,0.0,0.0
2023-06-28 00:00:00-04:00,112.69586544014706,112.69586544014706,110.40877617431367,111.42961883544922,204800,0.0,0.0
2023-06-29 00:00:00-04:00,111.34129569405539,113.23575689558982,110.47750274563647,112.66643524169922,225900,0.0,0.0
2023-06-30 00:00:00-04:00,113.09833284074686,114.13881153734555,112.72532539184819,113.72654724121094,279800,0.0,0.0
2023-07-03 00:00:00-04:00,113.28483828054459,114.86518477299002,113.28483828054459,114.39402770996094,85700,0.0,0.0
2023-07-05 00:00:00-04:00,113.49097953545123,113.49097953545123,110.68364288928096,110.8603286743164,384200,0.0,0.0
2023-07-06 00:00:00-04:00,110.18302145320327,110.89958248249435,109.57443547611915,110.39897155761719,277700,0.0,0.0
2023-07-07 00:00:00-04:00,110.57565663909402,113.20630723406722,110.51675639077017,111.69466400146484,333400,0.0,0.0
2023-07-10 00:00:00-04:00,111.22350117784158,113.17686260297434,110.929029887298,112.36214447021484,248000,0.0,0.0
2023-07-11 00:00:00-04:00,112.20508796771925,113.4320704098084,111.28240226372463,113.38299560546875,226700,0.0,0.0
2023-07-12 00:00:00-04:00,114.43328809873285,115.38542763725938,113.63819841282893,114.71794891357422,199400,0.0,0.0
2023-07-13 00:00:00-04:00,114.69831222740211,115.20874109502009,114.41365141448175,114.8553695678711,190200,0.0,0.0
2023-07-14 00:00:00-04:00,115.52284962915222,116.65166744903586,114.55107417374965,116.17069244384766,271600,0.0,0.0
2023-07-17 00:00:00-04:00,116.21977744333584,117.33878482207749,115.00261296782688,117.0639419555664,234200,0.0,0.0
2023-07-18 00:00:00-04:00,116.81854971788495,118.15350725141096,116.5142529712606,116.88726043701172,189100,0.0,0.0
2023-07-19 00:00:00-04:00,116.56333833824858,117.2111886975828,116.13143809869243,116.91670989990234,247200,0.0,0.0
2023-07-20 00:00:00-04:00,117.57436296115227,118.00626317218011,116.67130569164537,117.13265228271484,175800,0.0,0.0
2023-07-21 00:00:00-04:00,117.44675876945266,117.83939464173179,116.68112293740685,117.63325500488281,184300,0.0,0.0
2023-07-24 00:00:00-04:00,117.80994478383553,118.27129138780221,116.52406956002712,117.5252914428711,163400,0.0,0.0
2023-07-25 00:00:00-04:00,117.47619584899162,118.88968188173146,117.10319591875451,118.3399887084961,250700,0.0,0.0
2023-07-26 00:00:00-04:00,118.34984843033186,118.58623083658243,117.03003100697195,118.14300537109375,306900,0.41,0.0
2023-07-27 00:00:00-04:00,118.25135370008546,118.96050846224766,116.95123914094194,117.34521484375,407800,0.0,0.0
2023-07-28 00:00:00-04:00,120.64475358705498,125.07696356835932,120.04394229954343,121.91532135009766,513000,0.0,0.0
2023-07-31 00:00:00-04:00,121.65922899664189,122.06305615640262,119.00975762578362,119.63026428222656,746500,0.0,0.0
2023-08-01 00:00:00-04:00,119.41358520927224,120.65460611911824,118.93096888884513,120.59551239013672,365300,0.0,0.0
2023-08-02 00:00:00-04:00,119.61057747961267,120.48716953175558,118.17257245571012,120.39852142333984,329200,0.0,0.0
2023-08-03 00:00:00-04:00,119.68936222304521,120.88114082631289,118.90141830822384,118.99005889892578,195900,0.0,0.0
2023-08-04 00:00:00-04:00,118.80292117376706,120.29016834905809,118.66503080671306,118.82261657714844,116500,0.0,0.0
2023-08-07 00:00:00-04:00,118.91126051156141,119.82725078315647,118.6945735096523,119.46282196044922,140300,0.0,0.0
2023-08-08 00:00:00-04:00,118.27105347378337,119.57116799836159,117.90662464334399,119.2953872680664,270100,0.0,0.0
2023-08-09 00:00:00-04:00,119.295394245377,121.53119459486082,118.70442691508153,119.99469757080078,287500,0.0,0.0
2023-08-10 00:00:00-04:00,119.96514930096563,121.70848186440932,119.96514930096563,120.388671875,216000,0.0,0.0
2023-08-11 00:00:00-04:00,119.67951949211201,121.36375836268823,119.67951949211201,120.76294708251953,226500,0.0,0.0
2023-08-14 00:00:00-04:00,120.19168505519164,121.13722229003906,119.74846705945322,121.13722229003906,145700,0.0,0.0
2023-08-15 00:00:00-04:00,120.78262897293594,121.07811260746895,120.1424269555494,120.25076293945312,249000,0.0,0.0
2023-08-16 00:00:00-04:00,119.89620845848317,121.30466660320468,119.65981851478783,119.70906829833984,291100,0.0,0.0
2023-08-17 00:00:00-04:00,120.12274286789547,120.81220228505703,119.78786837643065,119.80756378173828,186600,0.0,0.0
2023-08-18 00:00:00-04:00,119.5514706614991,121.56074002317912,119.5514706614991,121.43270111083984,443100,0.0,0.0
2023-08-21 00:00:00-04:00,121.29481465792134,122.58507782562879,121.20616655077505,121.91532135009766,358800,0.0,0.0
2023-08-22 00:00:00-04:00,122.00396283639077,123.81624054567901,120.9106838325083,121.09781646728516,429600,0.0,0.0
2023-08-23 00:00:00-04:00,121.20616606012085,121.69863383382778,120.46746439956047,121.53119659423828,305000,0.0,0.0
2023-08-24 00:00:00-04:00,121.62969008028209,123.5700143338806,120.74324657426476,123.22528839111328,278400,0.0,0.0
2023-08-25 00:00:00-04:00,123.67835859597204,125.75657323927061,123.09725021956615,125.61868286132812,493000,0.0,0.0
2023-08-28 00:00:00-04:00,125.70732622680575,127.62795512957084,125.70732622680575,127.46051788330078,331900,0.0,0.0
2023-08-29 00:00:00-04:00,127.84462418454724,129.97208835964057,127.4506409879065,129.83419799804688,472400,0.0,0.0
2023-08-30 00:00:00-04:00,130.37589091978845,131.25248280332488,129.71598602129887,130.8880615234375,298900,0.0,0.0
2023-08-31 00:00:00-04:00,131.2722040887197,131.71542206418476,130.24787776700208,130.56304931640625,305800,0.0,0.0
2023-09-01 00:00:00-04:00,131.09492494428994,131.7745178351225,130.52366053389966,130.55320739746094,252000,0.0,0.0
2023-09-05 00:00:00-04:00,129.6963019473409,129.99178560886958,125.44138831966775,125.64822387695312,325300,0.0,0.0
2023-09-06 00:00:00-04:00,125.86490743154572,126.08158692765036,124.29885609165704,124.50569915771484,291100,0.0,0.0
2023-09-07 00:00:00-04:00,124.38750981983786,125.2542503868458,123.25483244984741,123.47151947021484,328600,0.0,0.0
2023-09-08 00:00:00-04:00,123.61926334777158,124.76178468160838,123.23513908329988,123.42227172851562,238800,0.0,0.0
2023-09-11 00:00:00-04:00,125.07695388171561,126.00279563295808,124.50569701713536,125.0966567993164,333500,0.0,0.0
2023-09-12 00:00:00-04:00,124.21022261093232,125.37244685863264,123.53061467790278,124.62389373779297,258000,0.0,0.0
2023-09-13 00:00:00-04:00,123.88518867479367,124.68298404247041,123.2252836789509,123.48136901855469,279300,0.0,0.0
2023-09-14 00:00:00-04:00,124.11172409736754,125.38229179040027,124.11172409736754,124.85042572021484,217900,0.0,0.0
2023-09-15 00:00:00-04:00,124.58448994506509,125.2837932520013,123.28437537881747,124.03292846679688,589200,0.0,0.0
2023-09-18 00:00:00-04:00,124.45644630402369,124.45644630402369,123.03813682585913,123.7472915649414,175100,0.0,0.0
2023-09-19 00:00:00-04:00,123.79655204787096,123.79655204787096,122.19110228739817,123.42227172851562,218600,0.0,0.0
2023-09-20 00:00:00-04:00,123.94428884123076,124.20037419414,122.68357251069614,122.75251770019531,206200,0.0,0.0
2023-09-21 00:00:00-04:00,122.45702914619172,122.47672454928626,120.34926783539315,120.37881469726562,335700,0.0,0.0
2023-09-22 00:00:00-04:00,120.48716037267445,121.04857330175713,120.27047336242124,120.8318862915039,341200,0.0,0.0
2023-09-25 00:00:00-04:00,120.15228116938907,122.26004256679889,119.64011800881072,122.17140197753906,258800,0.0,0.0
2023-09-26 00:00:00-04:00,121.66908429375634,122.34869221115255,121.37360814470796,121.73802947998047,547000,0.0,0.0
2023-09-27 00:00:00-04:00,122.17140377584057,122.57522343473762,121.01903101173075,121.65923309326172,362400,0.0,0.0
2023-09-28 00:00:00-04:00,121.99411013583865,123.74729410203551,121.40315034597452,123.5798568725586,219300,0.0,0.0
2023-09-29 00:00:00-04:00,124.58447965267393,124.91936160428632,122.91009243799479,123.15632629394531,330900,0.0,0.0
2023-10-02 00:00:00-04:00,122.6540128194209,123.58970602416005,122.1221467641343,123.16618347167969,244100,0.0,0.0
2023-10-03 00:00:00-04:00,122.15168982371121,123.42225744160356,120.6447398045364,121.0190200805664,236300,0.0,0.0
2023-10-04 00:00:00-04:00,121.68879452704238,122.7820736275,120.48717191108265,122.35855102539062,208200,0.0,0.0
2023-10-05 00:00:00-04:00,122.09260826611496,123.04799693932927,120.95008695070266,121.88577270507812,466700,0.0,0.0
2023-10-06 00:00:00-04:00,121.74787677417403,124.78147989317664,121.53118976360791,124.50569915771484,491700,0.0,0.0
2023-10-09 00:00:00-04:00,123.92458710028268,125.30349833422895,123.79654818760531,125.02771759033203,275700,0.0,0.0
2023-10-10 00:00:00-04:00,125.3231951536615,126.67255953949541,124.60419642244754,124.63374328613281,322000,0.0,0.0
2023-10-11 00:00:00-04:00,125.60882568359375,125.77626291855002,124.74208513105981,125.60882568359375,212900,0.0,0.0
2023-10-12 00:00:00-04:00,125.30349604416907,125.48078473550004,123.17603174819745,123.53060913085938,189300,0.0,0.0
2023-10-13 00:00:00-04:00,124.10187352296693,124.761778507277,123.51091372336892,124.07232666015625,324900,0.0,0.0
2023-10-16 00:00:00-04:00,125.44138756500169,125.51033275034871,124.26931189964081,124.80117797851562,275200,0.0,0.0
2023-10-17 00:00:00-04:00,124.11173667090924,126.40663090072249,124.11173667090924,125.5595932006836,314400,0.0,0.0
2023-10-18 00:00:00-04:00,124.95877292177799,125.74671683410875,124.37765705376466,124.87012481689453,287300,0.0,0.0
2023-10-19 00:00:00-04:00,124.18067105542181,125.54973081483128,123.50106314806689,123.83594512939453,443900,0.0,0.0
2023-10-20 00:00:00-04:00,124.03292439990166,124.5746419157682,120.09318250839613,120.37881469726562,446500,0.0,0.0
2023-10-23 00:00:00-04:00,119.88634948649754,121.30465900194697,119.38403028069895,119.66966247558594,379000,0.0,0.0
2023-10-24 00:00:00-04:00,120.2901701673284,121.90546378962974,119.88635051898383,121.48194122314453,312100,0.0,0.0
2023-10-25 00:00:00-04:00,120.98783390708984,122.32193004982163,120.45419394209233,120.92854309082031,431300,0.41,0.0
2023-10-26 00:00:00-04:00,119.83162224324822,123.9129702724296,119.83162224324822,121.97605895996094,576000,0.0,0.0
2023-10-27 00:00:00-04:00,122.01559371378868,122.38123049558588,118.94222716992682,119.74268341064453,364000,0.0,0.0
2023-10-30 00:00:00-04:00,120.48384848626635,120.87913821692635,119.42645279197745,120.73090362548828,283100,0.0,0.0
2023-10-31 00:00:00-04:00,121.0668978964798,121.44241897947953,120.39490764196373,120.82971954345703,422900,0.0,0.0
2023-11-01 00:00:00-04:00,120.67160832753754,121.97605911265033,120.17749806742626,121.48194885253906,360500,0.0,0.0
2023-11-02 00:00:00-04:00,122.26264837035367,122.82593378558079,121.53136727012583,122.12429809570312,384300,0.0,0.0
2023-11-03 00:00:00-04:00,122.96428251310115,124.48614305463377,122.96428251310115,123.87344360351562,278000,0.0,0.0
2023-11-06 00:00:00-05:00,123.7943839445495,124.24897202852465,123.28051258024303,123.71533203125,173500,0.0,0.0
2023-11-07 00:00:00-05:00,123.15204561917379,123.51768239133312,122.70734185531134,123.08287048339844,205000,0.0,0.0
2023-11-08 00:00:00-05:00,123.40897795368349,124.01179308445136,122.94452063446629,123.64615631103516,175800,0.0,0.0
2023-11-09 00:00:00-05:00,124.20944098820135,124.20944098820135,122.60852101331227,122.92475128173828,118600,0.0,0.0
2023-11-10 00:00:00-05:00,122.77652022014401,124.308265103415,122.43064453217058,124.23908996582031,195600,0.0,0.0
2023-11-13 00:00:00-05:00,123.9129653082153,124.00190907191333,122.90498373662263,123.06309509277344,183100,0.0,0.0
2023-11-14 00:00:00-05:00,124.46636609651023,126.35387082706988,123.8339055942185,126.34398651123047,267400,0.0,0.0
2023-11-15 00:00:00-05:00,126.3143475614149,127.28280699604653,125.8498827070265,126.20564270019531,388600,0.0,0.0
2023-11-16 00:00:00-05:00,126.14635167264116,127.1049192498191,125.34588791957243,126.04753112792969,217000,0.0,0.0
2023-11-17 00:00:00-05:00,127.04563379971587,127.55951271717034,126.1068272759975,126.42305755615234,162700,0.0,0.0
2023-11-20 00:00:00-05:00,125.94870215932512,126.14635078688451,124.940720547107,125.82023620605469,213900,0.0,0.0
2023-11-21 00:00:00-05:00,125.95858603909745,126.78869519292185,125.70164659392273,126.40328979492188,160600,0.0,0.0
2023-11-22 00:00:00-05:00,126.93691476594223,127.67808010915994,125.85975808610391,127.05551147460938,174800,0.0,0.0
2023-11-24 00:00:00-05:00,127.45081068313257,127.45081068313257,126.59106359523292,127.0159912109375,65900,0.0,0.0
2023-11-27 00:00:00-05:00,126.31433827436793,126.7886874102254,125.35576322655868,125.50399780273438,367500,0.0,0.0
2023-11-28 00:00:00-05:00,125.50401234114236,125.5138966579054,124.01179716995637,124.13038635253906,218000,0.0,0.0
2023-11-29 00:00:00-05:00,124.16002759218779,124.91107731093103,123.44850759964413,123.8932113647461,331800,0.0,0.0
2023-11-30 00:00:00-05:00,123.97226185014588,125.63247263378987,123.33980131728381,125.39530181884766,301000,0.0,0.0
2023-12-01 00:00:00-05:00,124.93083848043351,127.02586119361783,124.93083848043351,126.59105682373047,218300,0.0,0.0
2023-12-04 00:00:00-05:00,125.94869726613702,127.36186039483064,125.39529620951916,126.90727233886719,192000,0.0,0.0
2023-12-05 00:00:00-05:00,126.7392779421962,127.17409737078592,124.39719266482523,124.50589752197266,178000,0.0,0.0
2023-12-06 00:00:00-05:00,124.90119267287656,125.80047697767145,124.39719808953521,124.88143157958984,179500,0.0,0.0
2023-12-07 00:00:00-05:00,124.75295250697287,125.61270704722888,124.50589738455122,125.00000762939453,254000,0.0,0.0
2023-12-08 00:00:00-05:00,124.87154541234229,125.99811620109602,124.14026433918309,125.82023620605469,265800,0.0,0.0
2023-12-11 00:00:00-05:00,125.76095292249371,126.1760037559498,124.85178426029628,126.06729888916016,338000,0.0,0.0
2023-12-12 00:00:00-05:00,126.1463510868967,126.5910548453198,125.1877759746455,125.97835540771484,210300,0.0,0.0
2023-12-13 00:00:00-05:00,125.68187706386493,127.47056120426309,125.68187706386493,127.07526397705078,425000,0.0,0.0
2023-12-14 00:00:00-05:00,127.55951044773897,128.47854832161434,125.38542071327007,125.89929962158203,412900,0.0,0.0
2023-12-15 00:00:00-05:00,125.66213330765346,127.06540472998513,124.48614839791895,124.49603271484375,713000,0.0,0.0
2023-12-18 00:00:00-05:00,125.21742212064312,125.71153238433733,124.39719727342491,125.55342102050781,240500,0.0,0.0
2023-12-19 00:00:00-05:00,126.20563457460618,126.62069289959634,124.54542389321702,124.74307250976562,659100,0.0,0.0
2023-12-20 00:00:00-05:00,124.53554704982824,125.44471566145563,123.9821459693349,124.09085083007812,346400,0.0,0.0
2023-12-21 00:00:00-05:00,124.75294875759722,124.75294875759722,123.37932292137825,124.42684173583984,421900,0.0,0.0
2023-12-22 00:00:00-05:00,124.91107389434772,125.54353441719309,124.63437335804339,124.78260040283203,312200,0.0,0.0
2023-12-26 00:00:00-05:00,124.6541318886724,125.3755361630872,124.11060760387191,124.34778594970703,274700,0.0,0.0
2023-12-27 00:00:00-05:00,124.63436937582038,124.98024503514964,123.55720513445337,123.80426025390625,283100,0.0,0.0
2023-12-28 00:00:00-05:00,123.50780990540973,124.31815046958467,122.9346401664867,123.72521209716797,343600,0.0,0.0
2023-12-29 00:00:00-05:00,123.71533193650929,123.8833276189881,122.10452762943483,122.16382598876953,313500,0.0,0.0
2024-01-02 00:00:00-05:00,121.16571704448889,122.6381634898007,120.84948678362613,121.43253326416016,313100,0.0,0.0
2024-01-03 00:00:00-05:00,123.67579826718928,125.76094414531796,121.69935724826344,123.8833236694336,531700,0.0,0.0
2024-01-04 00:00:00-05:00,123.70544279171902,124.43672385242652,122.66780824839185,122.75675201416016,353300,0.0,0.0
2024-01-05 00:00:00-05:00,122.32193344846323,122.90498746956777,121.54123834128632,122.73698425292969,423000,0.0,0.0
2024-01-08 00:00:00-05:00,122.60852284211245,123.68568715781811,120.92855092970204,122.88522338867188,352400,0.0,0.0
2024-01-09 00:00:00-05:00,122.25276515945477,123.17181058624556,121.52148405261278,123.16192626953125,250300,0.0,0.0
2024-01-10 00:00:00-05:00,122.99392771839973,123.94261853371319,122.76664121593656,123.71533203125,279600,0.0,0.0
2024-01-11 00:00:00-05:00,123.90308518645588,125.47435972243426,123.46827328767989,125.34588623046875,323100,0.0,0.0
2024-01-12 00:00:00-05:00,126.38351292943362,126.46257237503322,124.43671743380486,124.94071197509766,231700,0.0,0.0
2024-01-16 00:00:00-05:00,124.39719304252597,125.32612271932483,124.03155628512354,125.31623840332031,257500,0.0,0.0
2024-01-17 00:00:00-05:00,124.45648936589546,125.77081687111075,124.4070753262042,125.1976547241211,336900,0.0,0.0
2024-01-18 00:00:00-05:00,125.82024377996669,128.47855200982383,124.82213888440117,127.61880493164062,444200,0.0,0.0
2024-01-19 00:00:00-05:00,128.18209008005715,129.91147598730586,127.02585880393394,129.25924682617188,418000,0.0,0.0
2024-01-22 00:00:00-05:00,129.35806092328045,130.25734522161773,129.02206956314845,129.6446533203125,266200,0.0,0.0
2024-01-23 00:00:00-05:00,130.24745420313715,130.29686823988254,128.79476898129465,130.277099609375,217800,0.0,0.0
2024-01-24 00:00:00-05:00,130.5636832420236,130.73167891188575,129.00229309506915,129.23947143554688,294400,0.0,0.0
2024-01-25 00:00:00-05:00,130.47474445843625,130.82062764663073,128.84418675191344,129.7039337158203,332300,0.0,0.0
2024-01-26 00:00:00-05:00,130.12886723227166,131.02815149954128,129.85216670065762,130.1486358642578,219900,0.0,0.0
2024-01-29 00:00:00-05:00,129.50629241175295,131.02814526319688,128.95289137486424,130.69215393066406,187800,0.0,0.0
2024-01-30 00:00:00-05:00,130.47474422630816,131.5222554859971,130.0794620796869,130.69215393066406,228400,0.0,0.0
2024-01-31 00:00:00-05:00,131.2175488168734,131.6140753923471,128.03550435063644,128.74923706054688,537500,0.41,0.0
2024-02-01 00:00:00-05:00,129.3241702188752,129.96850501102756,128.48156460519286,129.3638153076172,298800,0.0,0.0
2024-02-02 00:00:00-05:00,128.82853516166915,129.57200543236544,127.56958793469315,128.96731567382812,344800,0.0,0.0
2024-02-05 00:00:00-05:00,128.00577179741288,130.30556552210692,126.9351726903174,129.5125274658203,319500,0.0,0.0
2024-02-06 00:00:00-05:00,129.34400751468976,130.2559959724917,128.17428812075116,129.9883575439453,369700,0.0,0.0
2024-02-07 00:00:00-05:00,130.2659228755762,131.26712417582533,128.24367503772052,130.65252685546875,393000,0.0,0.0
2024-02-08 00:00:00-05:00,130.49390979357565,133.6660467963085,130.39477436732616,130.9697265625,620700,0.0,0.0
2024-02-09 00:00:00-05:00,130.95981501793833,137.99800653748164,130.3650327307306,137.75018310546875,650900,0.0,0.0
2024-02-12 00:00:00-05:00,137.94843452529844,139.2470268484113,136.31279084943992,136.41192626953125,491300,0.0,0.0
2024-02-13 00:00:00-05:00,135.4999597846696,136.13438724835154,133.80484063314395,134.74656677246094,275900,0.0,0.0
2024-02-14 00:00:00-05:00,135.07368805267203,136.26325271615664,133.99318143841845,135.97576904296875,335000,0.0,0.0
2024-02-15 00:00:00-05:00,135.9757796515362,136.61020712945134,133.39842464010636,133.86431884765625,471400,0.0,0.0
2024-02-16 00:00:00-05:00,134.19141146940265,136.7985185102983,133.8642827622,136.30287170410156,453900,0.0,0.0
2024-02-20 00:00:00-05:00,135.94601402085385,138.91989504664994,135.75766580240287,138.47381591796875,373000,0.0,0.0
2024-02-21 00:00:00-05:00,137.86913947554837,138.8901708495271,137.77992666639122,138.7811279296875,276300,0.0,0.0
2024-02-22 00:00:00-05:00,139.24703328340902,141.180053056989,138.8505218366026,140.2383270263672,295700,0.0,0.0
2024-02-23 00:00:00-05:00,140.73397752354722,140.81328284014006,139.37590990100838,140.12928771972656,190300,0.0,0.0
2024-02-26 00:00:00-05:00,140.2680761335312,140.8231982549688,139.5741734817342,140.68441772460938,199200,0.0,0.0
2024-02-27 00:00:00-05:00,140.68439280321402,140.9421237065279,138.58285510834838,139.08840942382812,244600,0.0,0.0
2024-02-28 00:00:00-05:00,138.43416809390393,140.01033667439933,138.11696195491015,139.18756103515625,189600,0.0,0.0
2024-02-29 00:00:00-05:00,139.40565497538333,140.396948797008,138.6126168928949,139.2371368408203,250600,0.0,0.0
2024-03-01 00:00:00-05:00,138.6621693304686,139.5642351130347,138.3449480820494,139.06858825683594,151400,0.0,0.0
2024-03-04 00:00:00-05:00,139.46512794883685,140.88267083058346,139.33625491378967,140.7240753173828,260300,0.0,0.0
2024-03-05 00:00:00-05:00,141.03136662496232,141.96318517392672,140.50598214538743,141.27919006347656,190200,0.0,0.0
2024-03-06 00:00:00-05:00,141.68560621173435,142.38943141864434,141.2395270563974,141.82440185546875,184000,0.0,0.0
2024-03-07 00:00:00-05:00,143.2419369981293,143.87636434934632,142.58767953801575,143.390625,250100,0.0,0.0
2024-03-08 00:00:00-05:00,143.45012922799398,143.8069955930077,141.72527260943724,141.84422302246094,185200,0.0,0.0
2024-03-11 00:00:00-04:00,141.54682126117743,142.13169604193249,140.7438757815281,141.4972686767578,226700,0.0,0.0
2024-03-12 00:00:00-04:00,141.5567547257704,141.60632243992973,140.24823967648902,141.17015075683594,242200,0.0,0.0
2024-03-13 00:00:00-04:00,141.75499169716946,141.75499169716946,139.70300658487778,139.93101501464844,336800,0.0,0.0
2024-03-14 00:00:00-04:00,140.12929766345746,140.38702861621618,139.1380038246175,139.70303344726562,235200,0.0,0.0
2024-03-15 00:00:00-04:00,138.82076653015324,141.1701429429702,138.5233905135426,139.7724151611328,599500,0.0,0.0
2024-03-18 00:00:00-04:00,139.70302038648921,140.06980935821068,137.72043289416052,138.0475616455078,299700,0.0,0.0
2024-03-19 00:00:00-04:00,137.67087488880983,139.09834024725149,137.67087488880983,138.29537963867188,253000,0.0,0.0
2024-03-20 00:00:00-04:00,138.41435230223198,138.85052397600484,137.92861291535908,138.7513885498047,220000,0.0,0.0
2024-03-21 00:00:00-04:00,139.08843342098686,140.36721091891917,138.0872321084364,139.9112091064453,255800,0.0,0.0
2024-03-22 00:00:00-04:00,140.77361081986902,141.20978246160044,139.8219773524016,140.35726928710938,276000,0.0,0.0
2024-03-25 00:00:00-04:00,139.9706758510705,142.79586911672604,139.9409382483535,141.71536254882812,316300,0.0,0.0
2024-03-26 00:00:00-04:00,141.58648848098767,143.05359899938549,141.3783101375535,141.95326232910156,314200,0.0,0.0
2024-03-27 00:00:00-04:00,142.41915705286345,143.8862674213768,142.41915705286345,143.40054321289062,218200,0.0,0.0
2024-03-28 00:00:00-04:00,143.55916383297742,144.08454829465626,142.39933686940833,142.6372528076172,247800,0.0,0.0
2024-04-01 00:00:00-04:00,142.53811857132533,142.53811857132533,140.88265985977688,141.05117797851562,204400,0.0,0.0
2024-04-02 00:00:00-04:00,140.60509657020089,140.60509657020089,139.16772371206562,139.4056396484375,202600,0.0,0.0
2024-04-03 00:00:00-04:00,139.4452793146353,139.960756260409,138.65224135020063,139.65345764160156,258700,0.0,0.0
2024-04-04 00:00:00-04:00,140.59518971189533,141.5071781165175,139.7426765101487,140.51588439941406,403600,0.0,0.0
2024-04-05 00:00:00-04:00,140.14911948491763,141.51709461595203,139.72285529394162,140.49606323242188,288300,0.0,0.0
2024-04-08 00:00:00-04:00,140.4365711471719,141.14039630193804,139.16771647109113,139.2866668701172,312500,0.0,0.0
2024-04-09 00:00:00-04:00,139.19745233021874,139.8715398767991,138.1466834827859,139.08840942382812,242600,0.0,0.0
2024-04-10 00:00:00-04:00,137.76999877927764,138.99920845355638,137.2446143108546,138.18634033203125,200700,0.0,0.0
2024-04-11 00:00:00-04:00,138.04755907083242,138.8207669683444,137.24461357156548,137.918701171875,265300,0.0,0.0
2024-04-12 00:00:00-04:00,136.9670646336894,137.74027259948474,134.77631377258373,136.00550842285156,299200,0.0,0.0
2024-04-15 00:00:00-04:00,137.40322972923067,138.59277922513755,136.63002180059405,136.99679565429688,319600,0.0,0.0
2024-04-16 00:00:00-04:00,136.5903543367824,138.17643033118634,136.1641052997771,137.38339233398438,281700,0.0,0.0
2024-04-17 00:00:00-04:00,137.67086969395015,138.2656368202302,137.14548525906264,137.19503784179688,565400,0.0,0.0
2024-04-18 00:00:00-04:00,137.1851472645947,138.22600877134346,137.01662913507428,137.8988800048828,246600,0.0,0.0
2024-04-19 00:00:00-04:00,137.84931577236912,138.70182906002995,137.56184722085314,138.1268768310547,276600,0.0,0.0
2024-04-22 00:00:00-04:00,138.33502731615243,139.92108802823105,138.03763620578138,139.09832763671875,298800,0.0,0.0
2024-04-23 00:00:00-04:00,138.55312824028502,139.93102591361165,138.30530480892452,138.9298095703125,417200,0.0,0.0
2024-04-24 00:00:00-04:00,139.13860773601874,140.08309687938592,138.83040745274005,139.19825744628906,559200,0.41,0.0
2024-04-25 00:00:00-04:00,139.0292386706214,140.4310674806865,138.11457442322126,139.3672637939453,694400,0.0,0.0
2024-04-26 00:00:00-04:00,141.17671738557638,147.6489684748245,141.07729109393654,142.49900817871094,489500,0.0,0.0
2024-04-29 00:00:00-04:00,144.05989608090238,147.16181733326363,143.53297011620526,145.5313262939453,676700,0.0,0.0
2024-04-30 00:00:00-04:00,144.89503861467492,145.25295202466614,143.2247709779419,143.5429229736328,585100,0.0,0.0
2024-05-01 00:00:00-04:00,144.1493863720236,146.35651652986462,143.74175981802546,144.53712463378906,359600,0.0,0.0
2024-05-02 00:00:00-04:00,144.914913867979,145.8792912599076,144.44763759888693,145.07398986816406,356500,0.0,0.0
2024-05-03 00:00:00-04:00,146.25708021006977,146.27696850093866,144.00023706156148,145.9588165283203,303300,0.0,0.0
2024-05-06 00:00:00-04:00,146.9033104690389,148.21566464459445,146.30679825586762,148.17588806152344,260200,0.0,0.0
2024-05-07 00:00:00-04:00,147.46008217334202,149.50813634180696,147.46008217334202,148.85195922851562,392900,0.0,0.0
2024-05-08 00:00:00-04:00,148.851952516239,149.99527896212328,148.61333853025974,149.91574096679688,223500,0.0,0.0
2024-05-09 00:00:00-04:00,150.12453415300365,150.8502975207552,147.76827976285352,148.21566772460938,299100,0.0,0.0
2024-05-10 00:00:00-04:00,148.08642917571808,148.13614232465676,147.23141459307158,147.6291046142578,186300,0.0,0.0
2024-05-13 00:00:00-04:00,147.66885717155736,148.6133462634333,146.00854125481663,147.01268005371094,167500,0.0,0.0
2024-05-14 00:00:00-04:00,147.4401857000379,147.4501222604799,146.61499607371425,147.04249572753906,137600,0.0,0.0
2024-05-15 00:00:00-04:00,147.102167082445,147.47995361006247,145.91906401390577,146.4261016845703,211100,0.0,0.0
2024-05-16 00:00:00-04:00,146.51557301812144,147.042498969268,145.58102052504745,146.68458557128906,235500,0.0,0.0
2024-05-17 00:00:00-04:00,146.99279178758786,147.31092858235036,146.27696503647144,146.81382751464844,169500,0.0,0.0
2024-05-20 00:00:00-04:00,146.73430448574354,147.54955760165925,146.1874902214491,147.31094360351562,163400,0.0,0.0
2024-05-21 00:00:00-04:00,147.08227500823682,147.81797492279415,146.2371970752046,147.72850036621094,280400,0.0,0.0
2024-05-22 00:00:00-04:00,147.21152602409944,147.96711422959115,146.61499864007018,147.92733764648438,283300,0.0,0.0
2024-05-23 00:00:00-04:00,147.7981084397933,148.0864204140624,146.7044799091405,146.86355590820312,171700,0.0,0.0
2024-05-24 00:00:00-04:00,147.61915308465808,147.96712995738272,146.50565136445627,147.23141479492188,162300,0.0,0.0
2024-05-28 00:00:00-04:00,146.76413330685176,146.92320930991465,144.9745813685235,145.8594207763672,318400,0.0,0.0
2024-05-29 00:00:00-04:00,144.8055608458342,145.84947630873282,143.67217081562745,144.00025939941406,229700,0.0,0.0
2024-05-30 00:00:00-04:00,144.28858574012926,146.1278509067867,144.15933458565246,145.292724609375,328100,0.0,0.0
2024-05-31 00:00:00-04:00,145.24299539146205,146.97291267642265,145.07398283832615,146.83372497558594,358900,0.0,0.0
2024-06-03 00:00:00-04:00,147.6390352585539,147.6390352585539,145.43190503298203,147.30101013183594,266200,0.0,0.0
2024-06-04 00:00:00-04:00,146.79394812461462,147.52966321073654,145.84945907277913,147.33082580566406,287900,0.0,0.0
2024-06-05 00:00:00-04:00,146.86355577498975,147.34076860142255,146.2272669496386,147.06239318847656,229200,0.0,0.0
2024-06-06 00:00:00-04:00,147.15185656875352,147.15185656875352,144.55698831854846,145.11375427246094,197600,0.0,0.0
2024-06-07 00:00:00-04:00,144.92485667565106,145.48160747169428,144.60670469487127,144.7061309814453,179100,0.0,0.0
2024-06-10 00:00:00-04:00,143.99030717125453,144.96462108446894,143.15518095992786,144.7458953857422,125800,0.0,0.0
2024-06-11 00:00:00-04:00,144.069842198694,144.8950318322786,143.51309140261802,144.6564178466797,147700,0.0,0.0
2024-06-12 00:00:00-04:00,145.39213888233263,145.4617251495329,143.234721873972,144.98451232910156,221300,0.0,0.0
2024-06-13 00:00:00-04:00,145.04416203536522,145.68045085271436,144.17921095389806,144.98451232910156,232400,0.0,0.0
2024-06-14 00:00:00-04:00,144.2487917043436,144.53711883402036,142.84696297947195,143.9107666015625,141500,0.0,0.0
2024-06-17 00:00:00-04:00,144.03007123818756,145.82957483514926,143.7318227074485,145.4816131591797,303800,0.0,0.0
2024-06-18 00:00:00-04:00,145.63073417824452,146.83372551658982,145.62079761754873,145.8395233154297,219900,0.0,0.0
2024-06-20 00:00:00-04:00,145.8097081220493,146.67465923985355,144.82544241638323,144.96463012695312,199900,0.0,0.0
2024-06-21 00:00:00-04:00,145.02426713243977,146.28690814864567,144.46751633892825,145.99859619140625,444100,0.0,0.0
2024-06-24 00:00:00-04:00,146.3664553693474,147.37059417305838,145.81964110185237,145.86935424804688,182900,0.0,0.0
2024-06-25 00:00:00-04:00,145.93892924098893,145.94888097165233,143.66221295627713,144.02012634277344,194500,0.0,0.0
2024-06-26 00:00:00-04:00,143.4136783501354,143.9505409043724,142.13116408870536,142.87681579589844,192400,0.0,0.0
2024-06-27 00:00:00-04:00,143.03587341308594,143.04582514463127,141.4451589090506,143.03587341308594,377300,0.0,0.0
2024-06-28 00:00:00-04:00,142.9463882562167,143.48326592890723,139.27777978400968,139.9936065673828,435100,0.0,0.0
2024-07-01 00:00:00-04:00,140.56031649992028,140.65972762098727,137.58764636312122,137.7367706298828,306400,0.0,0.0
2024-07-02 00:00:00-04:00,137.6771168664537,139.6854095648267,136.96129006644594,139.5859832763672,259400,0.0,0.0
2024-07-03 00:00:00-04:00,140.063219987868,140.58019424318394,139.75501971288125,140.4012451171875,143300,0.0,0.0
2024-07-05 00:00:00-04:00,140.17258910255097,140.61997710784055,138.91988448335212,140.08309936523438,207000,0.0,0.0
2024-07-08 00:00:00-04:00,140.8287476496575,141.67382566032194,140.67962337498633,140.68955993652344,249300,0.0,0.0
2024-07-09 00:00:00-04:00,140.04332622757835,140.45095278130893,138.93976114938218,139.2280731201172,238400,0.0,0.0
2024-07-10 00:00:00-04:00,139.93396267066512,140.808865480054,139.75501355255665,140.4708251953125,142000,0.0,0.0
2024-07-11 00:00:00-04:00,140.38135020760953,142.46918093443176,139.93396224338247,141.2661895751953,244500,0.0,0.0
2024-07-12 00:00:00-04:00,142.5785575352512,144.64650016944287,142.5785575352512,143.751708984375,263900,0.0,0.0
2024-07-15 00:00:00-04:00,143.92070998156234,144.8453259480649,142.31010721643665,142.59841918945312,319900,0.0,0.0
2024-07-16 00:00:00-04:00,143.01600293382853,144.45759319455206,143.01600293382853,143.7218780517578,178800,0.0,0.0
2024-07-17 00:00:00-04:00,143.50313696887406,144.92485395451703,143.50313696887406,144.02012634277344,242300,0.0,0.0
2024-07-18 00:00:00-04:00,143.77158413178512,146.39627739473178,143.7616475708671,145.43190002441406,434200,0.0,0.0
2024-07-19 00:00:00-04:00,145.74009743474508,145.74009743474508,143.82129446289454,145.0938720703125,251200,0.0,0.0
2024-07-22 00:00:00-04:00,145.14359967477395,146.7044894018996,144.40788450924526,146.33663940429688,235700,0.0,0.0
2024-07-23 00:00:00-04:00,147.01267493335766,147.64896373659573,144.82543312037194,145.1932830810547,234500,0.0,0.0
2024-07-24 00:00:00-04:00,145.22312418531487,145.77987499600405,143.06569203841158,143.30430603027344,250600,0.0,0.0
2024-07-25 00:00:00-04:00,142.4466137172535,143.66334017802635,140.84093471363238,141.11021423339844,558100,0.45,0.0
2024-07-26 00:00:00-04:00,142.7458185274977,150.8839040725973,141.9679134034649,146.26634216308594,562800,0.0,0.0
2024-07-29 00:00:00-04:00,146.18654807363913,147.9518012557539,144.78032917910988,147.4032745361328,390900,0.0,0.0
2024-07-30 00:00:00-04:00,146.98440955393974,147.50300282044066,145.01969618270712,145.35877990722656,411000,0.0,0.0
2024-07-31 00:00:00-04:00,146.10677238813136,148.4504707285892,145.0197017612093,146.58547973632812,280600,0.0,0.0
2024-08-01 00:00:00-04:00,146.48575417142177,149.13860271713426,145.03963404176758,146.63534545898438,335300,0.0,0.0
2024-08-02 00:00:00-04:00,146.1865607027143,146.60543153811187,143.36415499050057,145.2989501953125,213500,0.0,0.0
2024-08-05 00:00:00-04:00,143.04500195071893,143.04500195071893,139.10560747243943,140.30238342285156,448500,0.0,0.0
2024-08-06 00:00:00-04:00,140.9506421425725,145.69785981497913,140.7312314517885,144.5409698486328,476000,0.0,0.0
2024-08-07 00:00:00-04:00,145.61807332642232,146.86471806655007,143.08489791032852,143.2145538330078,353600,0.0,0.0
2024-08-08 00:00:00-04:00,144.07225793334294,145.76769187651146,144.07225793334294,145.16929626464844,268600,0.0,0.0
2024-08-09 00:00:00-04:00,145.01970173177108,145.01970173177108,143.08490654350197,143.56361389160156,263200,0.0,0.0
2024-08-12 00:00:00-04:00,143.58356293459363,143.7929907393466,142.38678696822322,142.90538024902344,221100,0.0,0.0
2024-08-13 00:00:00-04:00,143.12479067928683,144.9099945543652,142.71590275055541,143.98248291015625,212000,0.0,0.0
2024-08-14 00:00:00-04:00,143.74314177678474,144.42130926648593,143.10486022619372,143.5137481689453,115700,0.0,0.0
2024-08-15 00:00:00-04:00,144.61078772865739,146.94450299558522,144.61078772865739,146.61538696289062,277500,0.0,0.0
2024-08-16 00:00:00-04:00,145.7178086429149,146.4458448984164,145.21915075490517,146.326171875,250600,0.0,0.0
2024-08-19 00:00:00-04:00,145.9272513224637,147.33345499792665,145.52831588225743,146.57550048828125,191200,0.0,0.0
2024-08-20 00:00:00-04:00,146.58547636304425,147.91190824245643,146.58547636304425,147.7124481201172,387200,0.0,0.0
2024-08-21 00:00:00-04:00,147.77227873284713,149.16852996911774,147.06419304414976,148.92916870117188,267300,0.0,0.0
2024-08-22 00:00:00-04:00,149.16853288609883,149.99629161604025,148.27093952712292,148.590087890625,200400,0.0,0.0
2024-08-23 00:00:00-04:00,149.25828872832403,150.1259486188488,149.03887803129888,150.03619384765625,221400,0.0,0.0
2024-08-26 00:00:00-04:00,150.27553600322852,152.26019990468,149.7369921722213,149.75694274902344,235500,0.0,0.0
2024-08-27 00:00:00-04:00,149.6073354575319,151.133227391442,149.4377936001898,150.7941436767578,208300,0.0,0.0
2024-08-28 00:00:00-04:00,150.5248764586845,151.56209348205394,150.5248764586845,151.13323974609375,249000,0.0,0.0
2024-08-29 00:00:00-04:00,152.14052586050624,152.49956015138338,150.8041263625091,151.87124633789062,187100,0.0,0.0
2024-08-30 00:00:00-04:00,151.79146048136437,153.0281375417213,151.23296607276166,152.77880859375,178500,0.0,0.0
2024-09-03 00:00:00-04:00,151.7017037750138,151.97098329637666,149.32808735093408,149.6372528076172,362400,0.0,0.0
2024-09-04 00:00:00-04:00,149.19845240971176,150.49495079841,149.19845240971176,150.32540893554688,175800,0.0,0.0
2024-09-05 00:00:00-04:00,150.67447925817638,151.35264672627906,149.54750748684052,150.31544494628906,200600,0.0,0.0
2024-09-06 00:00:00-04:00,149.9763613557829,152.70899702647708,149.9763613557829,151.9709930419922,319100,0.0,0.0
2024-09-09 00:00:00-04:00,152.16047510581276,152.64915009618142,151.03350341028641,151.5022430419922,241500,0.0,0.0
2024-09-10 00:00:00-04:00,151.46235157142956,152.37988031700135,151.03351306529763,151.1033172607422,158100,0.0,0.0
2024-09-11 00:00:00-04:00,150.38525079268496,150.4750207850162,148.23106011554742,150.43511962890625,178000,0.0,0.0
2024-09-12 00:00:00-04:00,150.4849887540154,151.60197764192228,149.56745999354442,151.5521240234375,200400,0.0,0.0
2024-09-13 00:00:00-04:00,151.78149156962914,152.5992825990635,151.492261470345,151.87124633789062,138600,0.0,0.0
2024-09-16 00:00:00-04:00,152.62921458132197,152.7588705145806,151.66183218445363,152.57936096191406,182900,0.0,0.0
2024-09-17 00:00:00-04:00,153.5866296991098,155.15242277397783,151.46234222382526,152.61923217773438,259900,0.0,0.0
2024-09-18 00:00:00-04:00,153.3472690170848,155.07263627515385,152.30009962123864,152.6591339111328,214200,0.0,0.0
2024-09-19 00:00:00-04:00,154.60390786200904,158.38372825071872,154.60390786200904,156.47885131835938,412400,0.0,0.0
2024-09-20 00:00:00-04:00,155.8904363617549,155.8904363617549,154.06534655021557,155.49151611328125,663300,0.0,0.0
2024-09-23 00:00:00-04:00,155.75080963595366,156.48882882047508,154.32465531926172,155.5413818359375,315800,0.0,0.0
2024-09-24 00:00:00-04:00,155.7607751810832,156.65836853663214,155.61118389740747,156.20957946777344,246200,0.0,0.0
2024-09-25 00:00:00-04:00,156.87777486028946,157.44623694025017,155.4516053850471,156.71820068359375,284100,0.0,0.0
2024-09-26 00:00:00-04:00,157.5160583780924,158.6330471936873,157.2766971099658,157.9548797607422,371600,0.0,0.0
2024-09-27 00:00:00-04:00,158.25407181382246,161.11637865217875,157.83520098285544,159.46083068847656,354300,0.0,0.0
2024-09-30 00:00:00-04:00,158.86243164794053,159.98940340400793,158.50339734091747,159.76002502441406,289800,0.0,0.0
2024-10-01 00:00:00-04:00,160.10908102182546,160.10908102182546,158.62309013398428,159.54061889648438,192200,0.0,0.0
2024-10-02 00:00:00-04:00,159.4309042020019,159.6802331516974,157.53601027144867,158.32388305664062,186900,0.0,0.0
2024-10-03 00:00:00-04:00,157.56593495409092,160.02930629497408,156.21955248369235,158.5133819580078,367000,0.0,0.0
2024-10-04 00:00:00-04:00,159.51069006003982,161.0365820029643,158.90232681876836,160.1489715576172,350500,0.0,0.0
2024-10-07 00:00:00-04:00,158.96217139030824,159.21150035071827,157.58587065913858,158.26405334472656,223300,0.0,0.0
2024-10-08 00:00:00-04:00,157.85514229856898,158.59316146287298,156.67831696887936,158.2440948486328,205900,0.0,0.0
2024-10-09 00:00:00-04:00,157.92496457453083,159.62039840768432,157.69557098143002,159.27133178710938,152600,0.0,0.0
2024-10-10 00:00:00-04:00,157.62577532209792,158.9522072471334,157.62577532209792,158.79263305664062,168500,0.0,0.0
2024-10-11 00:00:00-04:00,160.50801550631274,161.48538077936988,159.91960280646023,161.1163787841797,194400,0.0,0.0
2024-10-14 00:00:00-04:00,164.5471496015545,167.3097035833241,163.02125754964115,166.74124145507812,469700,0.0,0.0
2024-10-15 00:00:00-04:00,166.8708837749407,169.2045990501098,166.0431098506034,168.2272186279297,397300,0.0,0.0
2024-10-16 00:00:00-04:00,168.2471783490178,168.74583626660103,165.47464154468156,165.5943145751953,330000,0.0,0.0
2024-10-17 00:00:00-04:00,166.53178529804745,167.86820001373155,166.07302855953967,167.43934631347656,238200,0.0,0.0
2024-10-18 00:00:00-04:00,168.64610780732278,168.64610780732278,167.32964364723057,168.1773681640625,171500,0.0,0.0
2024-10-21 00:00:00-04:00,168.01780020340925,168.0377507811335,165.85362666420463,165.883544921875,217900,0.0,0.0
2024-10-22 00:00:00-04:00,165.27517443013002,165.92342360843475,164.3676134062384,165.36492919921875,228500,0.0,0.0
2024-10-23 00:00:00-04:00,166.06305748263202,167.52911300642305,165.71400606419698,167.1999969482422,318100,0.0,0.0
2024-10-24 00:00:00-04:00,168.32000732421875,168.3300018310547,166.14999389648438,166.5500030517578,547300,0.45,0.0
2024-10-25 00:00:00-04:00,168.9199981689453,169.85000610351562,164.61000061035156,168.91000366210938,518900,0.0,0.0
2024-10-28 00:00:00-04:00,169.89999389648438,171.41000366210938,168.75999450683594,169.10000610351562,350000,0.0,0.0
2024-10-29 00:00:00-04:00,169.02999877929688,169.49000549316406,167.63999938964844,168.6999969482422,338100,0.0,0.0
2024-10-30 00:00:00-04:00,168.35000610351562,170.1999969482422,168.1199951171875,169.02999877929688,290300,0.0,0.0
2024-10-31 00:00:00-04:00,169.08999633789062,170.27999877929688,167.86000061035156,167.91000366210938,329900,0.0,0.0
2024-11-01 00:00:00-04:00,168.10000610351562,170.99000549316406,167.6199951171875,169.41000366210938,316300,0.0,0.0
2024-11-04 00:00:00-05:00,169.6300048828125,170.57000732421875,168.17999267578125,168.25999450683594,191800,0.0,0.0
2024-11-05 00:00:00-05:00,167.74000549316406,170.36000061035156,167.74000549316406,170.30999755859375,206200,0.0,0.0
2024-11-06 00:00:00-05:00,175.14999389648438,175.14999389648438,172.13999938964844,173.16000366210938,264100,0.0,0.0
2024-11-07 00:00:00-05:00,174.1999969482422,175.4600067138672,173.5399932861328,174.7100067138672,412300,0.0,0.0
2024-11-08 00:00:00-05:00,174.6999969482422,177.83999633789062,174.49000549316406,175.75999450683594,309200,0.0,0.0
2024-11-11 00:00:00-05:00,176.32000732421875,178.02999877929688,175.89999389648438,176.14999389648438,189100,0.0,0.0
2024-11-12 00:00:00-05:00,176.64999389648438,177.24000549316406,174.9499969482422,175.6999969482422,179800,0.0,0.0
2024-11-13 00:00:00-05:00,175.5,176.38999938964844,175.0500030517578,175.5,168400,0.0,0.0
2024-11-14 00:00:00-05:00,175.14999389648438,175.7899932861328,173.91000366210938,174.10000610351562,198200,0.0,0.0
2024-11-15 00:00:00-05:00,172.97000122070312,173.75999450683594,166.1699981689453,166.49000549316406,620500,0.0,0.0
2024-11-18 00:00:00-05:00,166.38999938964844,167.82000732421875,164.3300018310547,166.69000244140625,384400,0.0,0.0
2024-11-19 00:00:00-05:00,166.4199981689453,167.6699981689453,166.1999969482422,166.89999389648438,287600,0.0,0.0
2024-11-20 00:00:00-05:00,167.0,168.94000244140625,165.64999389648438,168.72999572753906,221800,0.0,0.0
2024-11-21 00:00:00-05:00,168.69000244140625,170.22999572753906,167.74000549316406,169.8800048828125,205100,0.0,0.0
2024-11-22 00:00:00-05:00,170.17999267578125,172.07000732421875,170.17999267578125,171.50999450683594,241600,0.0,0.0
2024-11-25 00:00:00-05:00,172.0500030517578,174.02000427246094,171.74000549316406,172.5,270100,0.0,0.0
2024-11-26 00:00:00-05:00,172.86000061035156,172.86000061035156,171.16000366210938,172.0399932861328,140300,0.0,0.0
2024-11-27 00:00:00-05:00,172.6699981689453,173.8800048828125,171.52000427246094,171.72999572753906,167200,0.0,0.0
2024-11-29 00:00:00-05:00,172.58999633789062,173.49000549316406,172.08999633789062,172.9600067138672,117300,0.0,0.0
2024-12-02 00:00:00-05:00,172.97999572753906,173.11000061035156,170.83999633789062,172.75999450683594,170900,0.0,0.0
2024-12-03 00:00:00-05:00,173.4499969482422,173.4499969482422,171.08999633789062,172.39999389648438,160100,0.0,0.0
2024-12-04 00:00:00-05:00,171.88999938964844,172.88999938964844,171.02999877929688,172.58999633789062,173400,0.0,0.0
2024-12-05 00:00:00-05:00,172.00999450683594,172.44000244140625,170.52999877929688,171.10000610351562,245000,0.0,0.0
2024-12-06 00:00:00-05:00,171.60000610351562,172.64999389648438,170.85000610351562,171.14999389648438,209200,0.0,0.0
2024-12-09 00:00:00-05:00,171.55999755859375,173.47000122070312,170.22999572753906,170.7899932861328,301700,0.0,0.0
2024-12-10 00:00:00-05:00,170.72000122070312,171.3699951171875,168.19000244140625,170.91000366210938,287000,0.0,0.0
2024-12-11 00:00:00-05:00,171.8800048828125,174.10000610351562,171.75,172.30999755859375,418600,0.0,0.0
2024-12-12 00:00:00-05:00,171.6699981689453,172.60000610351562,170.77999877929688,171.63999938964844,178300,0.0,0.0
2024-12-13 00:00:00-05:00,170.91000366210938,171.0,169.82000732421875,170.1999969482422,153200,0.0,0.0
2024-12-16 00:00:00-05:00,170.13999938964844,170.92999267578125,167.58999633789062,167.6300048828125,236100,0.0,0.0
2024-12-17 00:00:00-05:00,166.89999389648438,166.91000366210938,162.83999633789062,163.08999633789062,511900,0.0,0.0
2024-12-18 00:00:00-05:00,163.69000244140625,164.4199981689453,157.91000366210938,158.2100067138672,468600,0.0,0.0
2024-12-19 00:00:00-05:00,158.50999450683594,161.57000732421875,158.22999572753906,158.8699951171875,404700,0.0,0.0
2024-12-20 00:00:00-05:00,158.72000122070312,159.77999877929688,157.47000122070312,158.17999267578125,730200,0.0,0.0
2024-12-23 00:00:00-05:00,157.1699981689453,158.89999389648438,156.9600067138672,158.52000427246094,194900,0.0,0.0
2024-12-24 00:00:00-05:00,158.77999877929688,159.4199981689453,157.9199981689453,159.35000610351562,100500,0.0,0.0
2024-12-26 00:00:00-05:00,158.4199981689453,159.6300048828125,158.4199981689453,158.85000610351562,164500,0.0,0.0
2024-12-27 00:00:00-05:00,157.82000732421875,159.5800018310547,157.61000061035156,158.14999389648438,145000,0.0,0.0
2024-12-30 00:00:00-05:00,157.0,157.49000549316406,155.0,156.72999572753906,217897,0.0,0.0
