Date,Open,High,Low,Close,Volume,Dividends,Stock Splits
2022-01-03 00:00:00-05:00,117.7417621791586,118.28027163726163,114.71263180404685,116.18392181396484,234900,0.0,0.0
2022-01-04 00:00:00-05:00,116.35703411272208,118.20335884363392,115.35693971598424,116.72245025634766,337300,0.0,0.0
2022-01-05 00:00:00-05:00,116.58782639409505,119.37655025090086,116.58782639409505,118.3379898071289,367600,0.0,0.0
2022-01-06 00:00:00-05:00,118.79955938779734,119.24190751916501,117.32826928339934,117.84754943847656,231900,0.0,0.0
2022-01-07 00:00:00-05:00,118.01102655202445,119.03996854306524,117.28980532456666,118.93418884277344,335100,0.0,0.0
2022-01-10 00:00:00-05:00,118.23220465513087,119.13613766682059,117.01093985853582,117.36674499511719,398400,0.0,0.0
2022-01-11 00:00:00-05:00,117.58791394706584,118.26105819681567,116.0973944004296,117.8187026977539,135500,0.0,0.0
2022-01-12 00:00:00-05:00,117.62637307739448,118.280280613275,115.99160790601401,116.64551544189453,206600,0.0,0.0
2022-01-13 00:00:00-05:00,117.00131225585938,117.63599044869738,115.75119988113974,117.00131225585938,193200,0.0,0.0
2022-01-14 00:00:00-05:00,116.62627457920011,116.82821563406158,115.27038254323271,116.53011322021484,179000,0.0,0.0
2022-01-18 00:00:00-05:00,115.98199419071385,116.74168145654316,114.27029692651394,115.75120544433594,232500,0.0,0.0
2022-01-19 00:00:00-05:00,116.12624673954012,117.22250252012462,115.87622130321522,116.76091766357422,252600,0.0,0.0
2022-01-20 00:00:00-05:00,116.18392472081659,117.61674875719831,114.2510498865644,114.2702865600586,297700,0.0,0.0
2022-01-21 00:00:00-05:00,114.64533501625944,115.46271766037235,111.38541544108945,111.914306640625,351800,0.0,0.0
2022-01-24 00:00:00-05:00,111.15461293101922,112.75091944863918,109.65447511379894,112.53936004638672,329300,0.0,0.0
2022-01-25 00:00:00-05:00,110.31800511434675,112.45282121802009,108.76016455140191,111.5777359008789,470000,0.0,0.0
2022-01-26 00:00:00-05:00,111.33732330039199,113.03940949838646,110.01989722602293,110.76996612548828,1542500,0.0,0.0
2022-01-27 00:00:00-05:00,111.33733599898369,113.76064369772266,108.34667106063104,109.28907012939453,263900,0.0,0.0
2022-01-28 00:00:00-05:00,109.46216523752747,110.68343010758139,108.13511331728577,110.6353530883789,323100,0.0,0.0
2022-01-31 00:00:00-05:00,110.59687389266274,112.83746227719654,109.84680498536767,112.79900360107422,486300,0.0,0.0
2022-02-01 00:00:00-05:00,112.59706511029461,114.36646516996959,111.98162352518393,112.97210693359375,214000,0.0,0.0
2022-02-02 00:00:00-05:00,112.58618462678974,112.89490395553123,111.92051294445771,112.5090103149414,363600,0.38,0.0
2022-02-03 00:00:00-05:00,112.33536114021501,113.2422200758321,110.85929654202943,111.12942504882812,167700,0.0,0.0
2022-02-04 00:00:00-05:00,110.63740431983369,111.93981386478512,109.65336367888928,111.19696044921875,242700,0.0,0.0
2022-02-07 00:00:00-05:00,111.54426568873583,111.9398088933551,110.2997387778026,110.69528198242188,263300,0.0,0.0
2022-02-08 00:00:00-05:00,110.94612477389578,112.3353655611912,110.69528799608965,111.95911407470703,204200,0.0,0.0
2022-02-09 00:00:00-05:00,112.95279826192224,113.51235436706477,112.10381455468539,112.44148254394531,295900,0.0,0.0
2022-02-10 00:00:00-05:00,111.44777996065152,113.11679865055376,109.65335393490857,110.56986236572266,267100,0.0,0.0
2022-02-11 00:00:00-05:00,110.98471695484109,112.33536691876199,108.8912135590113,109.70159912109375,230600,0.0,0.0
2022-02-14 00:00:00-05:00,109.70159124837282,110.47339327535367,108.47636344302407,110.07784271240234,266600,0.0,0.0
2022-02-15 00:00:00-05:00,110.61810707546879,112.03628170733793,109.40252145913132,110.07784271240234,263000,0.0,0.0
2022-02-16 00:00:00-05:00,110.22255085786458,111.02329413169868,109.11308826116601,110.65668487548828,271400,0.0,0.0
2022-02-17 00:00:00-05:00,109.94278501710231,112.16171045663877,109.32534630288262,111.53462219238281,362400,0.0,0.0
2022-02-18 00:00:00-05:00,112.18100090372779,117.23628307832412,110.38656736106135,114.26486206054688,462300,0.0,0.0
2022-02-22 00:00:00-05:00,114.32275577449406,115.94353437862642,113.18435166730048,114.90160369873047,437200,0.0,0.0
2022-02-23 00:00:00-05:00,115.51902869806428,116.06893526461693,113.45446668606313,113.54129791259766,321100,0.0,0.0
2022-02-24 00:00:00-05:00,112.17134317814265,113.20362413138884,110.67598690854366,112.75019836425781,349300,0.0,0.0
2022-02-25 00:00:00-05:00,113.02997495037894,117.31345469342202,112.70195652511408,116.7056655883789,260100,0.0,0.0
2022-02-28 00:00:00-05:00,115.2585542148916,117.72830908542254,115.07524956543966,117.5835952758789,316300,0.0,0.0
2022-03-01 00:00:00-05:00,117.66078641005642,118.60624366265476,114.35169706663827,114.90160369873047,325700,0.0,0.0
2022-03-02 00:00:00-05:00,114.89194103908994,115.82774863405088,113.84036828876054,114.20697021484375,435100,0.0,0.0
2022-03-03 00:00:00-05:00,114.68934035279901,115.52867449997193,113.27116572960624,115.12348175048828,196100,0.0,0.0
2022-03-04 00:00:00-05:00,113.8886162460505,116.14612525116544,113.54130603596353,115.95317840576172,206700,0.0,0.0
2022-03-07 00:00:00-05:00,115.1041868882178,116.10752660990363,112.34500449369422,112.41253662109375,337300,0.0,0.0
2022-03-08 00:00:00-05:00,112.83703396810192,114.12015181149354,106.1609731390954,106.3056869506836,382800,0.0,0.0
2022-03-09 00:00:00-05:00,107.26079301190579,110.34798683599284,107.26079301190579,109.27711486816406,224800,0.0,0.0
2022-03-10 00:00:00-05:00,107.88786157322576,109.65335366832427,107.51161012482108,108.30270385742188,223200,0.0,0.0
2022-03-11 00:00:00-05:00,109.3060575309679,109.71125031809136,108.28341865241075,108.34130859375,237100,0.0,0.0
2022-03-14 00:00:00-04:00,108.84296216785393,111.82403986524349,108.79472178241275,110.4830322265625,173800,0.0,0.0
2022-03-15 00:00:00-04:00,111.03295241622659,112.80809430036948,110.06820347236317,112.69232177734375,199500,0.0,0.0
2022-03-16 00:00:00-04:00,113.57023670156563,114.91123702487893,110.32867995098754,112.865966796875,266800,0.0,0.0
2022-03-17 00:00:00-04:00,113.10714682263502,114.3323819158455,111.20659051616228,114.23590850830078,163300,0.0,0.0
2022-03-18 00:00:00-04:00,113.93685643552081,114.64112645034741,112.17136398339933,113.58954620361328,286800,0.0,0.0
2022-03-21 00:00:00-04:00,113.57988744553309,114.48674637616598,112.55724864055169,114.47710418701172,309100,0.0,0.0
2022-03-22 00:00:00-04:00,115.55761620912651,116.21364572230407,113.22292575593119,113.5219955444336,294100,0.0,0.0
2022-03-23 00:00:00-04:00,113.6474229686031,113.93684322132572,110.01996505630333,110.62775421142578,256800,0.0,0.0
2022-03-24 00:00:00-04:00,110.9461239612976,112.12311880186336,109.98137505728631,111.76615905761719,210100,0.0,0.0
2022-03-25 00:00:00-04:00,112.73091098177747,113.12646157603521,111.9108758634885,113.10716247558594,148000,0.0,0.0
2022-03-28 00:00:00-04:00,113.29045696631347,113.42552121554328,110.9557665319699,112.38359069824219,167300,0.0,0.0
2022-03-29 00:00:00-04:00,113.36764504605513,115.3743171596195,113.36764504605513,115.11383819580078,184700,0.0,0.0
2022-03-30 00:00:00-04:00,115.35503143768635,115.35503143768635,114.07191357011864,114.6314697265625,156600,0.0,0.0
2022-03-31 00:00:00-04:00,114.2262695488852,115.60586074997394,113.32905279068832,113.35799407958984,211200,0.0,0.0
2022-04-01 00:00:00-04:00,113.98509780970505,115.4225717838448,113.15541306640138,114.82442474365234,400800,0.0,0.0
2022-04-04 00:00:00-04:00,114.53497827982419,114.53497827982419,111.13905839483604,114.23590850830078,286300,0.0,0.0
2022-04-05 00:00:00-04:00,113.50272096266201,115.00772704255188,113.44483101773882,113.57990264892578,225300,0.0,0.0
2022-04-06 00:00:00-04:00,113.12644996455074,114.7279291963019,112.24852499547583,114.16837310791016,194300,0.0,0.0
2022-04-07 00:00:00-04:00,113.75355279029463,116.34872247352759,112.51866794540692,115.7698745727539,331900,0.0,0.0
2022-04-08 00:00:00-04:00,115.58656853197814,117.92126656851549,115.58656853197814,117.13017272949219,305300,0.0,0.0
2022-04-11 00:00:00-04:00,116.8600285604649,117.98879033797782,114.76652526855469,114.76652526855469,208000,0.0,0.0
2022-04-12 00:00:00-04:00,115.02701286874412,115.9531709156666,112.29677175598678,112.88526916503906,187400,0.0,0.0
2022-04-13 00:00:00-04:00,112.7694872307655,113.84035899318138,112.7694872307655,113.7245864868164,120200,0.0,0.0
2022-04-14 00:00:00-04:00,113.28080449411864,114.51568180404341,112.8370209208925,113.26151275634766,163300,0.0,0.0
2022-04-18 00:00:00-04:00,112.66337132113506,113.39658251974802,109.57617789610633,109.99102020263672,137100,0.0,0.0
2022-04-19 00:00:00-04:00,110.53129072171147,113.49306980600967,109.50865915476277,113.09752655029297,221600,0.0,0.0
2022-04-20 00:00:00-04:00,113.82107578973465,115.528678064067,113.19398754735957,115.28749084472656,141200,0.0,0.0
2022-04-21 00:00:00-04:00,116.0110568808747,116.10753030016171,114.16838292255746,114.74723815917969,178200,0.0,0.0
2022-04-22 00:00:00-04:00,114.41920886138898,114.41920886138898,112.32570568334667,112.5090103149414,179900,0.0,0.0
2022-04-25 00:00:00-04:00,112.39324592982716,112.39324592982716,108.2255310103666,111.33202362060547,379600,0.0,0.0
2022-04-26 00:00:00-04:00,110.70287261894532,111.65144601745483,106.89888282504552,107.03439331054688,295300,0.38,0.0
2022-04-27 00:00:00-04:00,107.38284614272077,109.36711095422719,107.02470708436275,107.53771209716797,231500,0.0,0.0
2022-04-28 00:00:00-04:00,107.61516136035077,108.64117150602922,106.03742780249848,108.50566101074219,289200,0.0,0.0
2022-04-29 00:00:00-04:00,108.9121719167614,112.71616126656559,108.9121719167614,111.14810943603516,640200,0.0,0.0
2022-05-02 00:00:00-04:00,111.71920483655906,113.21950904019587,108.47661974151622,109.7542953491211,457000,0.0,0.0
2022-05-03 00:00:00-04:00,109.36709798691714,111.67079063360372,109.02832182851219,110.18016815185547,225400,0.0,0.0
2022-05-04 00:00:00-04:00,109.72525786376724,113.03559818628545,109.10577923211825,113.00656127929688,346900,0.0,0.0
2022-05-05 00:00:00-04:00,111.78695577891453,112.45483415653653,108.28303126969195,109.18321228027344,179000,0.0,0.0
2022-05-06 00:00:00-04:00,108.10880877617936,108.13784568390282,106.24069140336726,107.66355895996094,331800,0.0,0.0
2022-05-09 00:00:00-04:00,106.47298466456795,107.53771303426016,103.2400812203503,103.578857421875,276700,0.0,0.0
2022-05-10 00:00:00-04:00,104.11122118550323,105.14691268257285,100.6072966699728,101.18805694580078,411800,0.0,0.0
2022-05-11 00:00:00-04:00,101.0428628069812,103.9757084124212,100.19108158016333,100.72344207763672,297800,0.0,0.0
2022-05-12 00:00:00-04:00,100.394335109241,103.24006965273047,99.93940395326639,103.03679656982422,389300,0.0,0.0
2022-05-13 00:00:00-04:00,103.56917850987446,104.8178171556516,103.33687587814796,104.06282806396484,226900,0.0,0.0
2022-05-16 00:00:00-04:00,103.84986715591013,104.94363231251957,102.94000484037964,104.85652160644531,202500,0.0,0.0
2022-05-17 00:00:00-04:00,106.5988151067139,106.850480596032,104.75006073439316,105.4663314819336,311200,0.0,0.0
2022-05-18 00:00:00-04:00,104.52742413508254,105.40824958776734,100.24914806858547,100.73311614990234,325900,0.0,0.0
2022-05-19 00:00:00-04:00,100.07493026216191,101.24613226149188,98.98116493669698,100.17172241210938,357000,0.0,0.0
2022-05-20 00:00:00-04:00,101.61396076890325,101.92370010397808,94.07373575358527,96.52261352539062,796300,0.0,0.0
2022-05-23 00:00:00-04:00,97.71317045252142,101.23645813513671,96.47421312036242,100.87832641601562,545200,0.0,0.0
2022-05-24 00:00:00-04:00,101.14933916865114,102.23343043835301,99.52320595648212,101.58490753173828,567400,0.0,0.0
2022-05-25 00:00:00-04:00,100.16205250253758,101.89465199701577,99.19411619355768,101.10094451904297,493400,0.0,0.0
2022-05-26 00:00:00-04:00,102.31085373264554,103.52077398674385,101.90432229961264,103.11424255371094,188200,0.0,0.0
2022-05-27 00:00:00-04:00,103.5304576215943,105.43729316422942,103.5304576215943,105.39857482910156,178000,0.0,0.0
2022-05-31 00:00:00-04:00,104.61455803921996,105.9212705792934,102.94002497550962,103.65629577636719,306100,0.0,0.0
2022-06-01 00:00:00-04:00,104.04346749279485,104.45968038387844,102.24310544157446,103.81116485595703,313900,0.0,0.0
2022-06-02 00:00:00-04:00,104.14994005394632,106.5020254601185,103.40463238336682,106.30844116210938,145400,0.0,0.0
2022-06-03 00:00:00-04:00,105.23402573334636,106.24068027601083,104.7694131041292,105.31146240234375,139800,0.0,0.0
2022-06-06 00:00:00-04:00,106.07612693604526,107.25701030746563,104.85653261437233,105.74703216552734,207400,0.0,0.0
2022-06-07 00:00:00-04:00,105.15657903352813,106.80206747654094,104.92427643346237,106.64720153808594,132900,0.0,0.0
2022-06-08 00:00:00-04:00,105.46632895853068,105.88254182581218,103.82084034914836,104.25640869140625,157700,0.0,0.0
2022-06-09 00:00:00-04:00,103.34656169787722,104.24674280623857,102.4076696337907,102.43670654296875,193800,0.0,0.0
2022-06-10 00:00:00-04:00,100.25882955065124,102.49475972438518,99.82325384637697,101.8268814086914,266800,0.0,0.0
2022-06-13 00:00:00-04:00,99.57159961244251,99.9200572354336,97.80995602277297,98.73917388916016,252100,0.0,0.0
2022-06-14 00:00:00-04:00,98.35200835280136,99.00052390356062,95.23525227512881,96.32901763916016,227900,0.0,0.0
2022-06-15 00:00:00-04:00,97.08400104994075,97.99385603039566,95.38043131870631,97.1517562866211,283300,0.0,0.0
2022-06-16 00:00:00-04:00,95.71920767978209,95.71920767978209,91.0150372821958,91.73130798339844,620400,0.0,0.0
2022-06-17 00:00:00-04:00,91.46029666727229,95.30300486521759,91.45062262154339,94.37378692626953,458500,0.0,0.0
2022-06-21 00:00:00-04:00,94.83840871608611,95.535316698797,93.97693855339695,94.07373809814453,236100,0.0,0.0
2022-06-22 00:00:00-04:00,93.28002567222966,95.6708221757161,93.15418922457327,95.30300903320312,228200,0.0,0.0
2022-06-23 00:00:00-04:00,95.45786908712122,96.13542146174841,94.054357190012,95.75792694091797,152100,0.0,0.0
2022-06-24 00:00:00-04:00,96.84202450103547,99.35865726718576,96.47420400079217,99.32962036132812,327300,0.0,0.0
2022-06-27 00:00:00-04:00,99.32961669011974,100.8105579122634,98.71981215057782,100.24915313720703,185200,0.0,0.0
2022-06-28 00:00:00-04:00,100.87831833914302,101.02351025529859,98.71014318146077,99.40705108642578,280200,0.0,0.0
2022-06-29 00:00:00-04:00,99.19411769862894,100.55890407491913,98.09066349566261,100.07493591308594,220900,0.0,0.0
2022-06-30 00:00:00-04:00,99.0489145906363,100.18139818912574,98.11969671099618,99.90069580078125,205900,0.0,0.0
2022-07-01 00:00:00-04:00,100.02652790935127,101.31388488620362,98.88437023081858,101.13965606689453,262300,0.0,0.0
2022-07-05 00:00:00-04:00,100.02653422237171,100.02653422237171,97.73252990558146,99.62000274658203,230200,0.0,0.0
2022-07-06 00:00:00-04:00,100.21043880719826,100.22980166767316,98.25521083098359,99.3489761352539,286400,0.0,0.0
2022-07-07 00:00:00-04:00,99.16506781943724,99.98781955601999,98.58430753490707,99.80390930175781,221200,0.0,0.0
2022-07-08 00:00:00-04:00,99.43607085453449,99.72644723046535,96.79360226344548,96.80328369140625,208100,0.0,0.0
2022-07-11 00:00:00-04:00,96.6097208680465,96.90978614619273,95.31268975558885,96.35806274414062,186900,0.0,0.0
2022-07-12 00:00:00-04:00,96.28061505746588,98.58430055643085,96.0386310073103,97.28726959228516,284300,0.0,0.0
2022-07-13 00:00:00-04:00,96.53229119388426,98.06162494727276,96.31934402467665,97.44214630126953,202500,0.0,0.0
2022-07-14 00:00:00-04:00,96.38707927792386,96.7064999654801,95.18683318857912,96.11605834960938,199800,0.0,0.0
2022-07-15 00:00:00-04:00,97.57762807865433,97.57762807865433,96.02893191939236,96.80328369140625,195300,0.0,0.0
2022-07-18 00:00:00-04:00,97.34535559331593,97.71316873710337,94.56737569108272,94.95455169677734,179900,0.0,0.0
2022-07-19 00:00:00-04:00,95.3901182964889,97.84866981889978,95.3901182964889,97.79059600830078,635400,0.0,0.0
2022-07-20 00:00:00-04:00,97.4421316415043,99.19410111610162,97.4324575969179,98.55525970458984,458900,0.0,0.0
2022-07-21 00:00:00-04:00,98.6423811796512,100.27818832760123,98.32296046294894,100.16204071044922,138900,0.0,0.0
2022-07-22 00:00:00-04:00,100.28785678243639,100.64599578677706,99.04889979465896,100.2781753540039,214600,0.0,0.0
2022-07-25 00:00:00-04:00,100.3943444846472,101.15901497368696,99.61031852078179,100.58792877197266,267400,0.0,0.0
2022-07-26 00:00:00-04:00,100.17020162451607,100.91824467106436,98.97526724828157,100.86967468261719,262200,0.38,0.0
2022-07-27 00:00:00-04:00,101.26797713599707,103.50240404727282,100.68508541492916,103.00694274902344,229200,0.0,0.0
2022-07-28 00:00:00-04:00,103.05550738049563,104.74589538574219,102.15202273061276,104.74589538574219,249800,0.0,0.0
2022-07-29 00:00:00-04:00,104.11445507107048,106.36830883722335,103.35669497729336,104.68763732910156,424400,0.0,0.0
2022-08-01 00:00:00-04:00,103.26925156103125,105.55224851893246,102.59892198761993,105.11507415771484,277000,0.0,0.0
2022-08-02 00:00:00-04:00,104.78476672505046,104.95963497909784,102.8126459449923,103.55097198486328,209700,0.0,0.0
2022-08-03 00:00:00-04:00,104.26988579135482,105.71740190459558,103.40526142603437,104.571044921875,260700,0.0,0.0
2022-08-04 00:00:00-04:00,104.14358424401739,104.16301816839783,102.84179296160565,103.40525817871094,292600,0.0,0.0
2022-08-05 00:00:00-04:00,102.65719811713441,103.6286867127243,102.09373295284352,102.63777160644531,174600,0.0,0.0
2022-08-08 00:00:00-04:00,103.10408951162906,104.92077598633239,102.98751561524125,104.21158599853516,219300,0.0,0.0
2022-08-09 00:00:00-04:00,104.68762078168645,104.92077598633239,103.45382602453313,104.21158599853516,249200,0.0,0.0
2022-08-10 00:00:00-04:00,106.11571481505423,107.58265742729695,104.96935784336637,106.64031219482422,152900,0.0,0.0
2022-08-11 00:00:00-04:00,107.48550093623498,108.11697002520668,106.4265818920995,106.5042953491211,171100,0.0,0.0
2022-08-12 00:00:00-04:00,107.36893275969733,107.98097541220875,106.99976970513382,107.91297149658203,201300,0.0,0.0
2022-08-15 00:00:00-04:00,107.52435745984268,109.22446249269318,107.52435745984268,108.71929168701172,146500,0.0,0.0
2022-08-16 00:00:00-04:00,107.99068215173514,109.05931818693435,107.55350781106033,108.8747329711914,187700,0.0,0.0
2022-08-17 00:00:00-04:00,107.83523641022244,108.29183724578654,106.91232518947753,107.8643798828125,173100,0.0,0.0
2022-08-18 00:00:00-04:00,107.77694946504232,107.97124422355601,106.83460432132408,107.8643798828125,197300,0.0,0.0
2022-08-19 00:00:00-04:00,108.0004014771626,108.08783931795992,106.42659446151971,107.01920318603516,253400,0.0,0.0
2022-08-22 00:00:00-04:00,106.05742428311224,106.19343211416802,104.67791204704888,104.84306335449219,178300,0.0,0.0
2022-08-23 00:00:00-04:00,104.80420188543796,105.34824061618568,102.98752269767229,103.8424301147461,178000,0.0,0.0
2022-08-24 00:00:00-04:00,104.308738262776,104.9887773480992,103.67726916247865,104.3864517211914,183000,0.0,0.0
2022-08-25 00:00:00-04:00,104.4738919450044,105.86312103271484,104.4738919450044,105.86312103271484,132900,0.0,0.0
2022-08-26 00:00:00-04:00,106.42657917158935,106.42657917158935,101.19996575621899,101.4331283569336,152000,0.0,0.0
2022-08-29 00:00:00-04:00,101.00567708276391,101.49142141236314,99.8593201684349,101.03482055664062,146800,0.0,0.0
2022-08-30 00:00:00-04:00,101.46226923385957,101.6857074556587,99.79130769749369,101.08338928222656,148900,0.0,0.0
2022-08-31 00:00:00-04:00,101.40398292129096,101.7731533529894,99.8204590853394,99.87874603271484,180300,0.0,0.0
2022-09-01 00:00:00-04:00,99.44158657615682,99.93704790169005,98.44095437437831,99.69417572021484,212200,0.0,0.0
2022-09-02 00:00:00-04:00,100.39363302482401,101.20968734086333,97.84833751831246,98.53809356689453,206000,0.0,0.0
2022-09-06 00:00:00-04:00,98.37295198868806,98.97527026450888,96.96428886711976,97.46946716308594,159300,0.0,0.0
2022-09-07 00:00:00-04:00,97.77060946228816,100.67535822227032,97.75118295203718,100.29647827148438,164200,0.0,0.0
2022-09-08 00:00:00-04:00,99.34442464384222,102.02572779829069,99.21812638436543,101.8994369506836,137900,0.0,0.0
2022-09-09 00:00:00-04:00,102.6669238946982,103.77442039582478,101.69543521568397,103.37611389160156,197100,0.0,0.0
2022-09-12 00:00:00-04:00,104.12414861999531,105.1830676380828,103.69669126347641,104.05614471435547,154500,0.0,0.0
2022-09-13 00:00:00-04:00,102.16174886279974,102.73492360226841,101.01539197199229,101.05424499511719,271700,0.0,0.0
2022-09-14 00:00:00-04:00,100.85023113937737,101.3359754487463,99.52900602494431,100.62679290771484,250700,0.0,0.0
2022-09-15 00:00:00-04:00,100.30619982965854,102.39490184117311,100.27705635701157,102.20059967041016,423000,0.0,0.0
2022-09-16 00:00:00-04:00,101.35541844309984,101.35541844309984,98.50895623896417,99.7136001586914,579400,0.0,0.0
2022-09-19 00:00:00-04:00,98.94611567543599,101.56913942865609,98.9363987137935,101.5497055053711,194400,0.0,0.0
2022-09-20 00:00:00-04:00,100.50049533997762,100.50049533997762,97.81919207023071,98.29521942138672,157500,0.0,0.0
2022-09-21 00:00:00-04:00,98.88782852205546,99.3638558753593,96.78940952387761,96.8282699584961,173500,0.0,0.0
2022-09-22 00:00:00-04:00,96.31337909888104,96.31337909888104,94.49669275072368,95.32246398925781,199200,0.0,0.0
2022-09-23 00:00:00-04:00,94.16639406579235,95.50704571921166,94.16639406579235,95.28360748291016,274900,0.0,0.0
2022-09-26 00:00:00-04:00,94.7201437390094,95.64305499530806,93.68065117598944,94.6327133178711,364000,0.0,0.0
2022-09-27 00:00:00-04:00,95.1961709040066,95.98308175194913,92.51486756188235,93.32119750976562,238600,0.0,0.0
2022-09-28 00:00:00-04:00,93.99153266493809,95.69163790693955,93.31149353288576,95.43904876708984,237000,0.0,0.0
2022-09-29 00:00:00-04:00,94.4481378262551,94.48699826582995,93.5252190630624,94.0109634399414,206400,0.0,0.0
2022-09-30 00:00:00-04:00,93.37949845865883,94.97273936691842,92.16513755834691,92.32057189941406,471500,0.0,0.0
2022-10-03 00:00:00-04:00,93.70979545491807,95.22531539596609,92.93260897237536,94.66185760498047,274200,0.0,0.0
2022-10-04 00:00:00-04:00,96.26481026562976,96.98371722927573,95.70135246119517,96.40082550048828,262900,0.0,0.0
2022-10-05 00:00:00-04:00,95.29332997871272,96.64370618916857,94.26355425337013,95.38076782226562,201300,0.0,0.0
2022-10-06 00:00:00-04:00,94.87557939238987,95.40017670929257,93.57378082576123,94.95329284667969,202100,0.0,0.0
2022-10-07 00:00:00-04:00,94.16640301353934,94.16640301353934,90.93134375973084,91.3005142211914,119000,0.0,0.0
2022-10-10 00:00:00-04:00,91.6988240971188,92.74803374401823,91.23251363974423,91.67939758300781,177300,0.0,0.0
2022-10-11 00:00:00-04:00,91.12563176369157,92.92288415421791,90.63988747371852,92.03882598876953,369800,0.0,0.0
2022-10-12 00:00:00-04:00,92.05826967741172,92.05826967741172,90.61074620317915,90.70790100097656,147400,0.0,0.0
2022-10-13 00:00:00-04:00,88.47347445229413,92.32056876441929,87.65742751269354,91.86396789550781,237000,0.0,0.0
2022-10-14 00:00:00-04:00,92.680016689808,93.18518751566972,91.42679546896231,92.369140625,319300,0.0,0.0
2022-10-17 00:00:00-04:00,93.28234217552959,94.59385785653218,93.28234217552959,94.54528045654297,344900,0.0,0.0
2022-10-18 00:00:00-04:00,96.4202431247074,97.12943306080201,95.30302975726127,96.44938659667969,281300,0.0,0.0
2022-10-19 00:00:00-04:00,95.89564883070547,96.38139318143047,94.80757881680805,95.40990447998047,359500,0.0,0.0
2022-10-20 00:00:00-04:00,95.28361168402189,95.88592992310433,92.70916519503372,93.33091735839844,185600,0.0,0.0
2022-10-21 00:00:00-04:00,92.83544626235462,95.12815990235946,91.83481421161524,94.73956298828125,176400,0.0,0.0
2022-10-24 00:00:00-04:00,95.10873887329721,95.98308012739575,94.49669628949319,95.0990219116211,158500,0.0,0.0
2022-10-25 00:00:00-04:00,94.08473830554523,96.97155011982244,93.59710102392906,96.75698852539062,292500,0.38,0.0
2022-10-26 00:00:00-04:00,97.38117205813707,98.55150609951095,96.51317821718118,96.63996124267578,271900,0.0,0.0
2022-10-27 00:00:00-04:00,96.6594709024473,98.15163992250055,96.42540707047455,96.63996124267578,216700,0.0,0.0
2022-10-28 00:00:00-04:00,99.4292491589364,101.54560083777957,96.76675348927867,98.62952423095703,445300,0.0,0.0
2022-10-31 00:00:00-04:00,97.48844874875874,98.11262390150411,96.64971199211561,96.69847869873047,372900,0.0,0.0
2022-11-01 00:00:00-04:00,97.13735118574695,97.13735118574695,94.48460301457354,94.81620025634766,301300,0.0,0.0
2022-11-02 00:00:00-04:00,94.78695591862603,95.33310740095536,92.2317333791815,92.41703796386719,268400,0.0,0.0
2022-11-03 00:00:00-04:00,91.9488948382548,92.67059601175141,90.26167382338723,92.3682632446289,278300,0.0,0.0
2022-11-04 00:00:00-04:00,94.0554889664151,96.33762805982337,93.85068218424422,96.32787322998047,209100,0.0,0.0
2022-11-07 00:00:00-05:00,96.73748808513194,98.03459762308559,95.55740673483317,98.00534057617188,180700,0.0,0.0
2022-11-08 00:00:00-05:00,98.50274259061094,99.24395343014979,97.65425094110901,97.86881256103516,153100,0.0,0.0
2022-11-09 00:00:00-05:00,97.75179078975881,98.38571342026589,96.1133289234706,96.66923522949219,165300,0.0,0.0
2022-11-10 00:00:00-05:00,100.28748009162447,100.69709360185104,98.54173781813047,99.79984283447266,266000,0.0,0.0
2022-11-11 00:00:00-05:00,100.2972377623237,102.48185825568335,98.95136147327118,101.67237854003906,292600,0.0,0.0
2022-11-14 00:00:00-05:00,101.04819676306815,102.66714864755373,101.04819676306815,101.81866455078125,238400,0.0,0.0
2022-11-15 00:00:00-05:00,103.21331392675727,104.36413826602359,101.70163530254348,102.10150146484375,272500,0.0,0.0
2022-11-16 00:00:00-05:00,102.26729919618415,103.27183088339511,102.11125168244985,102.32581329345703,139300,0.0,0.0
2022-11-17 00:00:00-05:00,101.1457345899273,102.47210872926864,101.1457345899273,102.02348327636719,162700,0.0,0.0
2022-11-18 00:00:00-05:00,103.48638262905804,104.28610745882128,102.02347081065547,103.4181137084961,213200,0.0,0.0
2022-11-21 00:00:00-05:00,103.4766298155874,104.0617930661947,102.33556036079001,102.54036712646484,193300,0.0,0.0
2022-11-22 00:00:00-05:00,102.63789385625377,104.0227894032295,102.63789385625377,103.37910461425781,284000,0.0,0.0
2022-11-23 00:00:00-05:00,103.36936320328242,104.1398311079335,102.96950444611858,103.56442260742188,202100,0.0,0.0
2022-11-25 00:00:00-05:00,103.91551120590492,103.91551120590492,102.94998399828181,103.29133605957031,114700,0.0,0.0
2022-11-28 00:00:00-05:00,102.44285718487815,102.88172783130433,100.68735971766219,100.94093322753906,208500,0.0,0.0
2022-11-29 00:00:00-05:00,100.45329770635183,101.52609842671512,100.38502877253114,100.75563049316406,181400,0.0,0.0
2022-11-30 00:00:00-05:00,100.34600536348798,103.55465976599352,98.99037423280163,103.5156478881836,297900,0.0,0.0
2022-12-01 00:00:00-05:00,104.13982879131224,105.11510346804789,103.87650790252593,104.4421615600586,156600,0.0,0.0
2022-12-02 00:00:00-05:00,103.6326756335968,105.86605524312506,103.47662813423473,105.37841796875,167400,0.0,0.0
2022-12-05 00:00:00-05:00,104.21784560514284,104.28611453033402,103.06702126566667,104.06179809570312,153800,0.0,0.0
2022-12-06 00:00:00-05:00,103.91551476892162,104.4324091321323,102.76469040826663,104.35438537597656,247800,0.0,0.0
2022-12-07 00:00:00-05:00,104.0910602658664,105.48570322721312,103.57415848292639,103.67169189453125,152800,0.0,0.0
2022-12-08 00:00:00-05:00,103.8179884903406,105.27115314580848,103.8179884903406,105.26139831542969,190800,0.0,0.0
2022-12-09 00:00:00-05:00,105.16387457554443,106.28544198883908,104.9883248287613,105.38818359375,316700,0.0,0.0
2022-12-12 00:00:00-05:00,105.77828600876349,106.09037359430248,104.83226842238612,105.40768432617188,209100,0.0,0.0
2022-12-13 00:00:00-05:00,107.65079825687944,108.36275192656184,104.92003408009667,105.53445434570312,328400,0.0,0.0
2022-12-14 00:00:00-05:00,105.7587724442383,107.55327400838529,104.57869115549408,105.56371307373047,302500,0.0,0.0
2022-12-15 00:00:00-05:00,105.03708629881025,105.86607577865577,104.58846081225292,104.98832702636719,230000,0.0,0.0
2022-12-16 00:00:00-05:00,104.46165067618415,105.58321782200518,103.75945185651345,104.78349304199219,540600,0.0,0.0
2022-12-19 00:00:00-05:00,104.66646380691651,105.68075022597856,103.16454011565662,103.63267517089844,269800,0.0,0.0
2022-12-20 00:00:00-05:00,103.79847083696468,105.45643459858334,103.64242333712774,104.4714126586914,193300,0.0,0.0
2022-12-21 00:00:00-05:00,105.31015423995657,107.90438079833984,104.9102880836928,107.90438079833984,388500,0.0,0.0
2022-12-22 00:00:00-05:00,106.79256922537186,108.06042918791105,104.80300813869356,105.87580871582031,213800,0.0,0.0
2022-12-23 00:00:00-05:00,106.44146360348923,107.47525224361951,105.67099581746135,107.28995513916016,161500,0.0,0.0
2022-12-27 00:00:00-05:00,107.18267511777245,108.27497785764758,106.91934682101372,108.12869262695312,101700,0.0,0.0
2022-12-28 00:00:00-05:00,108.31399440702319,109.1429837674232,106.31468594679085,106.4707260131836,162700,0.0,0.0
2022-12-29 00:00:00-05:00,107.20217528351922,108.42126845434005,106.67552614083412,108.05066680908203,128700,0.0,0.0
2022-12-30 00:00:00-05:00,107.76783589435087,108.00189969885503,106.32442631160781,107.26069641113281,172300,0.0,0.0
2023-01-03 00:00:00-05:00,107.84585524037915,108.32373765862074,106.743790301016,107.53376770019531,239200,0.0,0.0
2023-01-04 00:00:00-05:00,108.50906204230205,109.43557000399156,107.5825466398573,108.47980499267578,217200,0.0,0.0
2023-01-05 00:00:00-05:00,107.90438386088975,110.23528961821611,106.42196970556171,109.34779357910156,310000,0.0,0.0
2023-01-06 00:00:00-05:00,110.57664292276726,111.57142728462885,109.95246770937608,111.23983001708984,181500,0.0,0.0
2023-01-09 00:00:00-05:00,111.79572267053489,112.81976395806996,110.47910347281449,110.52787017822266,161800,0.0,0.0
2023-01-10 00:00:00-05:00,110.39133291098878,111.51289273371366,110.16701648199104,110.62539672851562,163000,0.0,0.0
2023-01-11 00:00:00-05:00,110.77168344999768,111.60066531643906,110.64489299838912,110.65464782714844,141300,0.0,0.0
2023-01-12 00:00:00-05:00,110.87897674372165,110.97650272004657,109.6208715590916,110.69367218017578,179100,0.0,0.0
2023-01-13 00:00:00-05:00,110.41083543186339,111.48363599262359,110.41083543186339,111.15204620361328,177700,0.0,0.0
2023-01-17 00:00:00-05:00,111.356865659884,111.69821031708925,110.04024630166056,111.23983001708984,204500,0.0,0.0
2023-01-18 00:00:00-05:00,111.65918869723848,111.76646950025388,109.15273323186517,109.20149993896484,118900,0.0,0.0
2023-01-19 00:00:00-05:00,108.83089694430555,109.6306293174961,107.60205621642669,109.22100830078125,177400,0.0,0.0
2023-01-20 00:00:00-05:00,109.67937380115757,110.48885345458984,108.92841567979852,110.48885345458984,180800,0.0,0.0
2023-01-23 00:00:00-05:00,110.40108139917471,110.91798318579559,109.67938028083822,110.55712890625,165500,0.0,0.0
2023-01-24 00:00:00-05:00,110.2352847150311,110.35232034343879,108.9966892709232,110.04998016357422,172600,0.0,0.0
2023-01-25 00:00:00-05:00,109.07471005247224,109.7281497035842,107.75809080213567,109.29902648925781,181200,0.0,0.0
2023-01-26 00:00:00-05:00,109.72815262186917,110.09875430907252,109.05521073437004,110.00122833251953,139000,0.0,0.0
2023-01-27 00:00:00-05:00,109.72814927014919,110.14751765319666,109.09421928078608,109.94271087646484,204300,0.0,0.0
2023-01-30 00:00:00-05:00,108.9479281647212,110.52787574602776,108.7041095069072,110.4498519897461,200200,0.0,0.0
2023-01-31 00:00:00-05:00,111.01551695530569,113.44394878889428,110.51812479250867,112.78076171875,630900,0.0,0.0
2023-02-01 00:00:00-05:00,111.98818275045524,115.52053241285088,111.92947573660169,114.57139587402344,190900,0.38,0.0
2023-02-02 00:00:00-05:00,114.57138889039847,115.7945013730372,114.0723643724879,114.7768783569336,271600,0.0,0.0
2023-02-03 00:00:00-05:00,114.08214072538685,114.08214072538685,112.731827269601,112.93730926513672,284100,0.0,0.0
2023-02-06 00:00:00-05:00,112.09581247400796,113.0155954666978,110.99990844726562,110.99990844726562,180400,0.0,0.0
2023-02-07 00:00:00-05:00,110.24645778648217,110.4030197574336,108.32861843404118,109.77678680419922,189100,0.0,0.0
2023-02-08 00:00:00-05:00,109.3168985454117,109.74743651284261,108.17206709414592,108.18184661865234,138800,0.0,0.0
2023-02-09 00:00:00-05:00,109.08206801886405,109.4049640438675,106.89024505321868,106.90003204345703,180200,0.0,0.0
2023-02-10 00:00:00-05:00,106.65540362822738,106.87067260981264,105.56927919589137,106.86088562011719,217900,0.0,0.0
2023-02-13 00:00:00-05:00,107.04681202406732,108.16229007405968,106.90003702479747,107.4382095336914,184900,0.0,0.0
2023-02-14 00:00:00-05:00,107.438211237858,108.80809134534121,107.30122322710967,107.3990707397461,122500,0.0,0.0
2023-02-15 00:00:00-05:00,106.47928907777968,108.0253051794531,106.2346665603739,108.01551818847656,155200,0.0,0.0
2023-02-16 00:00:00-05:00,106.38142517896222,109.13097946222398,105.85303972691345,108.30905151367188,372200,0.0,0.0
2023-02-17 00:00:00-05:00,112.52635733784415,118.67127374410836,111.56743379058679,114.18000793457031,590700,0.0,0.0
2023-02-21 00:00:00-05:00,113.99407578319632,113.99407578319632,110.67699554861629,112.60462188720703,463900,0.0,0.0
2023-02-22 00:00:00-05:00,112.14473062359853,113.5048310187556,111.96860213892352,112.25236511230469,257700,0.0,0.0
2023-02-23 00:00:00-05:00,112.34044007804002,113.07430761440618,110.64765647471593,112.09581756591797,196400,0.0,0.0
2023-02-24 00:00:00-05:00,111.3521634037615,112.56548889623957,110.5595814386297,112.3012924194336,215100,0.0,0.0
2023-02-27 00:00:00-05:00,113.34828540810467,114.72795998141066,113.02538936066618,114.18000793457031,215300,0.0,0.0
2023-02-28 00:00:00-05:00,114.1408565865931,115.56945104812323,114.08214211195074,114.2093505859375,261500,0.0,0.0
2023-03-01 00:00:00-05:00,113.68096753774685,115.08020852453151,113.68096753774685,114.93343353271484,194700,0.0,0.0
2023-03-02 00:00:00-05:00,114.89429070070614,116.44030664786749,114.7083826824528,116.02934265136719,205000,0.0,0.0
2023-03-03 00:00:00-05:00,116.41096318274032,117.6634292602539,115.31505163227258,117.6634292602539,225400,0.0,0.0
2023-03-06 00:00:00-05:00,117.54599069190945,117.60470516314895,114.0723559760678,114.31697845458984,265900,0.0,0.0
2023-03-07 00:00:00-05:00,114.19956377353569,114.81600976859379,113.72010577737939,114.1604232788086,247100,0.0,0.0
2023-03-08 00:00:00-05:00,113.90601405901887,114.18976956359856,112.69268119505315,112.8492431640625,281700,0.0,0.0
2023-03-09 00:00:00-05:00,113.46568350187745,113.90600841894931,112.06644270060367,112.10558319091797,189700,0.0,0.0
2023-03-10 00:00:00-05:00,112.17408531507543,112.17408531507543,109.864848476113,110.13882446289062,201400,0.0,0.0
2023-03-13 00:00:00-04:00,109.05270447113658,110.67700140915343,109.05270447113658,109.5615234375,245400,0.0,0.0
2023-03-14 00:00:00-04:00,111.42064997876949,112.78075037157791,111.04881903105006,112.60462188720703,261500,0.0,0.0
2023-03-15 00:00:00-04:00,111.0194680262325,111.30323100550942,107.80023521823885,108.98420715332031,256200,0.0,0.0
2023-03-16 00:00:00-04:00,107.84916407964876,110.84334095430944,107.58496761112815,110.2562484741211,209200,0.0,0.0
2023-03-17 00:00:00-04:00,110.49109039168059,110.49109039168059,107.58497386085018,108.37755584716797,393800,0.0,0.0
2023-03-20 00:00:00-04:00,109.39517192464199,111.02924823786921,109.39517192464199,110.35408782958984,146400,0.0,0.0
2023-03-21 00:00:00-04:00,111.6750680470849,111.7631360345813,110.0507784267172,110.58894348144531,141200,0.0,0.0
2023-03-22 00:00:00-04:00,110.37366744445923,111.76312135785138,109.72786050524878,109.83549499511719,176700,0.0,0.0
2023-03-23 00:00:00-04:00,109.73766081095724,111.00969339922412,108.42648025949426,109.31690979003906,156900,0.0,0.0
2023-03-24 00:00:00-04:00,108.63195620067049,110.55958268953378,107.65346620350424,110.5400161743164,148800,0.0,0.0
2023-03-27 00:00:00-04:00,111.01947842578275,112.36979198597774,111.01947842578275,111.5282974243164,170100,0.0,0.0
2023-03-28 00:00:00-04:00,111.32279368044414,112.64376103003902,110.70634772517593,112.54590606689453,189800,0.0,0.0
2023-03-29 00:00:00-04:00,113.20150365313748,113.44612613836577,112.68290517889922,113.37763214111328,138700,0.0,0.0
2023-03-30 00:00:00-04:00,113.77882086385497,114.25827889404745,112.57528229302476,113.45591735839844,148000,0.0,0.0
2023-03-31 00:00:00-04:00,114.01365162057634,115.72600912215786,114.01365162057634,115.64773559570312,206300,0.0,0.0
2023-04-03 00:00:00-04:00,115.39332536489201,116.25439387266012,115.11934936084243,116.09783935546875,151100,0.0,0.0
2023-04-04 00:00:00-04:00,115.9510568206088,115.9510568206088,114.26805294488504,115.13890838623047,183100,0.0,0.0
2023-04-05 00:00:00-04:00,115.20740478824561,116.63599922146386,114.70838028803446,116.51858520507812,249700,0.0,0.0
2023-04-06 00:00:00-04:00,116.77298416349359,116.77298416349359,115.39331725004219,116.49900817871094,159300,0.0,0.0
2023-04-10 00:00:00-04:00,115.83364820843825,116.65558372370869,115.43247117412322,116.53816223144531,174600,0.0,0.0
2023-04-11 00:00:00-04:00,116.63601008786671,117.409018117329,116.27397354990035,116.48924255371094,121800,0.0,0.0
2023-04-12 00:00:00-04:00,116.76320485690785,117.09588784896819,115.64772693662151,115.84342193603516,134300,0.0,0.0
2023-04-13 00:00:00-04:00,115.8042883789692,117.41879834932972,115.3541838811311,117.20352935791016,110700,0.0,0.0
2023-04-14 00:00:00-04:00,116.61642744410027,117.47749587497329,115.76513853729409,116.63599395751953,233600,0.0,0.0
2023-04-17 00:00:00-04:00,116.92955014017048,117.23287963867188,115.9804136851727,117.23287963867188,122400,0.0,0.0
2023-04-18 00:00:00-04:00,117.15461668690735,117.15461668690735,115.51075310828533,116.03913116455078,261700,0.0,0.0
2023-04-19 00:00:00-04:00,115.8238721357144,116.86106921978963,115.52053513797998,116.15655517578125,252900,0.0,0.0
2023-04-20 00:00:00-04:00,116.44030439380829,117.22309934223397,115.97062593169571,116.46965789794922,296800,0.0,0.0
2023-04-21 00:00:00-04:00,116.7534299567376,118.46578750741529,116.24461842640514,117.99610900878906,361500,0.0,0.0
2023-04-24 00:00:00-04:00,118.2603004210181,118.80825242482325,117.16438894812165,117.81019592285156,229600,0.0,0.0
2023-04-25 00:00:00-04:00,116.86105855385608,117.3698700584857,115.34439609947044,115.53031158447266,167500,0.0,0.0
2023-04-26 00:00:00-04:00,114.4931075181641,115.05084647341042,113.12322013843884,113.26020812988281,247200,0.0,0.0
2023-04-27 00:00:00-04:00,113.26020723587565,114.072355653944,112.16429584768879,114.06256866455078,361900,0.0,0.0
2023-04-28 00:00:00-04:00,114.00386604924881,116.99804290432304,114.00386604924881,115.96084594726562,586700,0.0,0.0
2023-05-01 00:00:00-04:00,116.84149293285557,119.86502340939604,116.84149293285557,119.02352142333984,283100,0.0,0.0
2023-05-02 00:00:00-04:00,118.14287552500228,118.27986352199954,113.24064620684463,117.88847351074219,359200,0.0,0.0
2023-05-03 00:00:00-04:00,118.25166527414284,118.78172260678689,117.53510420716846,117.6921615600586,294300,0.38,0.0
2023-05-04 00:00:00-04:00,117.73141886029768,117.93755100696332,116.20995767298123,116.61241149902344,192500,0.0,0.0
2023-05-05 00:00:00-04:00,116.79891023415145,119.63569303395245,116.79891023415145,119.4590072631836,171100,0.0,0.0
2023-05-08 00:00:00-04:00,119.61605920868642,120.08721625019025,118.43815911602067,119.26268768310547,200400,0.0,0.0
2023-05-09 00:00:00-04:00,118.64429522057912,118.80134507669057,117.48602351224487,118.35963439941406,185600,0.0,0.0
2023-05-10 00:00:00-04:00,118.8602376605255,119.33140220597461,116.31793367529332,117.41731262207031,227200,0.0,0.0
2023-05-11 00:00:00-04:00,117.27989407350391,117.62344766253574,116.76946517930813,117.08357238769531,203900,0.0,0.0
2023-05-12 00:00:00-04:00,117.47620439946992,118.64429405259523,117.15227924523927,118.56576538085938,168400,0.0,0.0
2023-05-15 00:00:00-04:00,118.36944486679788,118.84060941294503,117.82957709333841,118.35963439941406,148300,0.0,0.0
2023-05-16 00:00:00-04:00,118.35963697918922,118.35963697918922,116.03327555552497,116.14125061035156,180800,0.0,0.0
2023-05-17 00:00:00-04:00,116.63204222599711,116.84799233312319,115.29708473549634,116.77928161621094,168600,0.0,0.0
2023-05-18 00:00:00-04:00,115.99401185542538,116.857812298782,115.61119392763109,116.79891204833984,94000,0.0,0.0
2023-05-19 00:00:00-04:00,117.67251798837268,118.05533589999513,116.41608920264702,116.89706420898438,156900,0.0,0.0
2023-05-22 00:00:00-04:00,116.48479972892893,117.31914626601181,115.71916390692569,115.95474243164062,229600,0.0,0.0
2023-05-23 00:00:00-04:00,115.23818978808656,116.26885052221142,114.7572147788283,115.0222396850586,155400,0.0,0.0
2023-05-24 00:00:00-04:00,115.03205806094066,115.03205806094066,112.91182884773758,113.00017547607422,297800,0.0,0.0
2023-05-25 00:00:00-04:00,112.1854616347367,113.15722965008982,111.35111505634639,111.44927215576172,196800,0.0,0.0
2023-05-26 00:00:00-04:00,110.90940001682789,112.38177901647904,110.87013567816837,112.057861328125,210200,0.0,0.0
2023-05-30 00:00:00-04:00,112.10692956090803,112.60754048832791,110.92902942582099,111.2725830078125,136100,0.0,0.0
2023-05-31 00:00:00-04:00,111.35112083423996,111.46890636408747,109.63334529416476,110.41860961914062,360800,0.0,0.0
2023-06-01 00:00:00-04:00,110.74252041208102,111.42962754325274,109.9768846119451,110.86031341552734,170700,0.0,0.0
2023-06-02 00:00:00-04:00,111.91062193037851,112.63699347331249,111.56706832824129,112.057861328125,353000,0.0,0.0
2023-06-05 00:00:00-04:00,111.70448262306778,112.12656487552233,110.80141786948396,110.97810363769531,237400,0.0,0.0
2023-06-06 00:00:00-04:00,110.95847597543488,112.54864790024835,110.95847597543488,112.21490478515625,266900,0.0,0.0
2023-06-07 00:00:00-04:00,112.25416759300819,113.56948914499125,111.9596888183431,113.28483581542969,264100,0.0,0.0
2023-06-08 00:00:00-04:00,113.43206874182783,113.85415099525619,112.67625086373383,113.07869720458984,270500,0.0,0.0
2023-06-09 00:00:00-04:00,112.9412812011952,113.441892151164,112.28362038763048,112.69588470458984,295000,0.0,0.0
2023-06-12 00:00:00-04:00,112.56827265525595,113.46151194068716,112.19527270480974,113.26519775390625,353000,0.0,0.0
2023-06-13 00:00:00-04:00,113.57931687213875,114.24679566174903,112.6468131536555,113.0885238647461,340600,0.0,0.0
2023-06-14 00:00:00-04:00,113.48115466093687,113.82470825286784,112.24435424107874,113.03944396972656,225200,0.0,0.0
2023-06-15 00:00:00-04:00,112.8823871503775,114.25660901346778,112.8333048560538,113.91305541992188,362600,0.0,0.0
2023-06-16 00:00:00-04:00,113.52041136526161,115.05168297999425,113.23575055425765,114.99279022216797,975300,0.0,0.0
2023-06-20 00:00:00-04:00,114.72776130191517,114.79647201775808,113.57930755615234,113.57930755615234,297000,0.0,0.0
2023-06-21 00:00:00-04:00,113.01980117361711,113.13759417892268,111.33147220876805,111.52779388427734,317800,0.0,0.0
2023-06-22 00:00:00-04:00,111.8517255422251,111.95970060504243,110.2811893861192,111.94989013671875,266200,0.0,0.0
2023-06-23 00:00:00-04:00,110.82106057375844,111.63577874871399,110.0063423988029,110.75234985351562,366000,0.0,0.0
2023-06-26 00:00:00-04:00,110.97810720466035,112.26398991588081,110.97810720466035,111.51798248291016,142300,0.0,0.0
2023-06-27 00:00:00-04:00,111.73392545883496,112.7056934087205,111.14497541311361,112.60753631591797,218300,0.0,0.0
2023-06-28 00:00:00-04:00,112.69588087233157,112.69588087233157,110.40879129331206,111.42963409423828,204800,0.0,0.0
2023-06-29 00:00:00-04:00,111.34129569405539,113.23575689558982,110.47750274563647,112.66643524169922,225900,0.0,0.0
2023-06-30 00:00:00-04:00,113.09832525349637,114.13880388029408,112.72531782962105,113.7265396118164,279800,0.0,0.0
2023-07-03 00:00:00-04:00,113.28483828054459,114.86518477299002,113.28483828054459,114.39402770996094,85700,0.0,0.0
2023-07-05 00:00:00-04:00,113.49096391458002,113.49096391458002,110.68362765481089,110.86031341552734,384200,0.0,0.0
2023-07-06 00:00:00-04:00,110.18302145320327,110.89958248249435,109.57443547611915,110.39897155761719,277700,0.0,0.0
2023-07-07 00:00:00-04:00,110.57565663909402,113.20630723406722,110.51675639077017,111.69466400146484,333400,0.0,0.0
2023-07-10 00:00:00-04:00,111.22349362576098,113.17685491826042,110.92902235521201,112.36213684082031,248000,0.0,0.0
2023-07-11 00:00:00-04:00,112.20508796771925,113.4320704098084,111.28240226372463,113.38299560546875,226700,0.0,0.0
2023-07-12 00:00:00-04:00,114.43328048826987,115.38541996347374,113.63819085524393,114.71794128417969,199400,0.0,0.0
2023-07-13 00:00:00-04:00,114.69831984636394,115.20874874788771,114.41365901453466,114.85537719726562,190200,0.0,0.0
2023-07-14 00:00:00-04:00,115.52285721600032,116.65167511001793,114.55108169677736,116.17070007324219,271600,0.0,0.0
2023-07-17 00:00:00-04:00,116.21978501771373,117.33879246938432,115.00262046287865,117.06394958496094,234200,0.0,0.0
2023-07-18 00:00:00-04:00,116.81854209297525,118.15349953936672,116.51424536621278,116.88725280761719,189100,0.0,0.0
2023-07-19 00:00:00-04:00,116.56333833824858,117.2111886975828,116.13143809869243,116.91670989990234,247200,0.0,0.0
2023-07-20 00:00:00-04:00,117.57436296115227,118.00626317218011,116.67130569164537,117.13265228271484,175800,0.0,0.0
2023-07-21 00:00:00-04:00,117.44675876945266,117.83939464173179,116.68112293740685,117.63325500488281,184300,0.0,0.0
2023-07-24 00:00:00-04:00,117.80993713596214,118.27128370997957,116.52406199562894,117.52528381347656,163400,0.0,0.0
2023-07-25 00:00:00-04:00,117.47620342269731,118.88968954656478,117.10320346841284,118.33999633789062,250700,0.0,0.0
2023-07-26 00:00:00-04:00,118.34984843033186,118.58623083658243,117.03003100697195,118.14300537109375,306900,0.41,0.0
2023-07-27 00:00:00-04:00,118.25135370008546,118.96050846224766,116.95123914094194,117.34521484375,407800,0.0,0.0
2023-07-28 00:00:00-04:00,120.64475358705498,125.07696356835932,120.04394229954343,121.91532135009766,513000,0.0,0.0
2023-07-31 00:00:00-04:00,121.65922123785056,122.0630483718573,119.00975003596177,119.63025665283203,746500,0.0,0.0
2023-08-01 00:00:00-04:00,119.41358520927224,120.65460611911824,118.93096888884513,120.59551239013672,365300,0.0,0.0
2023-08-02 00:00:00-04:00,119.61056990014845,120.48716189674361,118.17256496736918,120.39851379394531,329200,0.0,0.0
2023-08-03 00:00:00-04:00,119.68936222304521,120.88114082631289,118.90141830822384,118.99005889892578,195900,0.0,0.0
2023-08-04 00:00:00-04:00,118.80292880189697,120.29017607268158,118.66503842598928,118.82262420654297,116500,0.0,0.0
2023-08-07 00:00:00-04:00,118.91126810573093,119.82725843582493,118.69458108998327,119.46282958984375,140300,0.0,0.0
2023-08-08 00:00:00-04:00,118.27106103766785,119.57117564539334,117.90663218392186,119.29539489746094,270100,0.0,0.0
2023-08-09 00:00:00-04:00,119.29540183030906,121.53120232194752,118.70443446243924,119.99470520019531,287500,0.0,0.0
2023-08-10 00:00:00-04:00,119.96514930096563,121.70848186440932,119.96514930096563,120.388671875,216000,0.0,0.0
2023-08-11 00:00:00-04:00,119.67951193116477,121.36375069533648,119.67951193116477,120.762939453125,226500,0.0,0.0
2023-08-14 00:00:00-04:00,120.19168505519164,121.13722229003906,119.74846705945322,121.13722229003906,145700,0.0,0.0
2023-08-15 00:00:00-04:00,120.78262897293594,121.07811260746895,120.1424269555494,120.25076293945312,249000,0.0,0.0
2023-08-16 00:00:00-04:00,119.89620845848317,121.30466660320468,119.65981851478783,119.70906829833984,291100,0.0,0.0
2023-08-17 00:00:00-04:00,120.1227352184302,120.8121945916867,119.78786074829033,119.80755615234375,186600,0.0,0.0
2023-08-18 00:00:00-04:00,119.5514706614991,121.56074002317912,119.5514706614991,121.43270111083984,443100,0.0,0.0
2023-08-21 00:00:00-04:00,121.29481465792134,122.58507782562879,121.20616655077505,121.91532135009766,358800,0.0,0.0
2023-08-22 00:00:00-04:00,122.00397052287427,123.81624834633946,120.91069145011312,121.09782409667969,429600,0.0,0.0
2023-08-23 00:00:00-04:00,121.20616606012085,121.69863383382778,120.46746439956047,121.53119659423828,305000,0.0,0.0
2023-08-24 00:00:00-04:00,121.62968254967774,123.57000668314262,120.74323909854385,123.22528076171875,278400,0.0,0.0
2023-08-25 00:00:00-04:00,123.67835108442223,125.75656560150136,123.0972427433097,125.6186752319336,493000,0.0,0.0
2023-08-28 00:00:00-04:00,125.70732622680575,127.62795512957084,125.70732622680575,127.46051788330078,331900,0.0,0.0
2023-08-29 00:00:00-04:00,127.84463920951127,129.97210363463523,127.45065596656757,129.83421325683594,472400,0.0,0.0
2023-08-30 00:00:00-04:00,130.3759061188692,131.25249810459778,129.71600114344866,130.88807678222656,298900,0.0,0.0
2023-08-31 00:00:00-04:00,131.27221943038705,131.71543745765064,130.24789298895732,130.5630645751953,305800,0.0,0.0
2023-09-01 00:00:00-04:00,131.09494026639382,131.77453323665583,130.52367578923537,130.55322265625,252000,0.0,0.0
2023-09-05 00:00:00-04:00,129.69629407214597,129.99177771573278,125.44138070283232,125.6482162475586,325300,0.0,0.0
2023-09-06 00:00:00-04:00,125.8649151442291,126.08159465361133,124.29886370837676,124.50570678710938,291100,0.0,0.0
2023-09-07 00:00:00-04:00,124.38750981983786,125.2542503868458,123.25483244984741,123.47151947021484,328600,0.0,0.0
2023-09-08 00:00:00-04:00,123.61926334777158,124.76178468160838,123.23513908329988,123.42227172851562,238800,0.0,0.0
2023-09-11 00:00:00-04:00,125.07695388171561,126.00279563295808,124.50569701713536,125.0966567993164,333500,0.0,0.0
2023-09-12 00:00:00-04:00,124.21022261093232,125.37244685863264,123.53061467790278,124.62389373779297,258000,0.0,0.0
2023-09-13 00:00:00-04:00,123.88519632913852,124.68299174610767,123.225291292523,123.48137664794922,279300,0.0,0.0
2023-09-14 00:00:00-04:00,124.11172409736754,125.38229179040027,124.11172409736754,124.85042572021484,217900,0.0,0.0
2023-09-15 00:00:00-04:00,124.58448228174343,125.28378554566477,123.28436779546722,124.03292083740234,589200,0.0,0.0
2023-09-18 00:00:00-04:00,124.45645397713974,124.45645397713974,123.03814441153213,123.74729919433594,175100,0.0,0.0
2023-09-19 00:00:00-04:00,123.79655204787096,123.79655204787096,122.19110228739817,123.42227172851562,218600,0.0,0.0
2023-09-20 00:00:00-04:00,123.94428884123076,124.20037419414,122.68357251069614,122.75251770019531,206200,0.0,0.0
2023-09-21 00:00:00-04:00,122.45702914619172,122.47672454928626,120.34926783539315,120.37881469726562,335700,0.0,0.0
2023-09-22 00:00:00-04:00,120.4871679803028,121.0485809448334,120.27048095636783,120.83189392089844,341200,0.0,0.0
2023-09-25 00:00:00-04:00,120.15228116938907,122.26004256679889,119.64011800881072,122.17140197753906,258800,0.0,0.0
2023-09-26 00:00:00-04:00,121.66908429375634,122.34869221115255,121.37360814470796,121.73802947998047,547000,0.0,0.0
2023-09-27 00:00:00-04:00,122.17140377584057,122.57522343473762,121.01903101173075,121.65923309326172,362400,0.0,0.0
2023-09-28 00:00:00-04:00,121.99411013583865,123.74729410203551,121.40315034597452,123.5798568725586,219300,0.0,0.0
2023-09-29 00:00:00-04:00,124.58448737054094,124.91936934289888,122.91010005213542,123.15633392333984,330900,0.0,0.0
2023-10-02 00:00:00-04:00,122.6540128194209,123.58970602416005,122.1221467641343,123.16618347167969,244100,0.0,0.0
2023-10-03 00:00:00-04:00,122.15168982371121,123.42225744160356,120.6447398045364,121.0190200805664,236300,0.0,0.0
2023-10-04 00:00:00-04:00,121.68879452704238,122.7820736275,120.48717191108265,122.35855102539062,208200,0.0,0.0
2023-10-05 00:00:00-04:00,122.09260826611496,123.04799693932927,120.95008695070266,121.88577270507812,466700,0.0,0.0
2023-10-06 00:00:00-04:00,121.74788423457618,124.78148753947032,121.53119721073205,124.50570678710938,491700,0.0,0.0
2023-10-09 00:00:00-04:00,123.92458710028268,125.30349833422895,123.79654818760531,125.02771759033203,275700,0.0,0.0
2023-10-10 00:00:00-04:00,125.3231951536615,126.67255953949541,124.60419642244754,124.63374328613281,322000,0.0,0.0
2023-10-11 00:00:00-04:00,125.60882568359375,125.77626291855002,124.74208513105981,125.60882568359375,212900,0.0,0.0
2023-10-12 00:00:00-04:00,125.30349604416907,125.48078473550004,123.17603174819745,123.53060913085938,189300,0.0,0.0
2023-10-13 00:00:00-04:00,124.1018658917555,124.76177083548703,123.5109061284965,124.07231903076172,324900,0.0,0.0
2023-10-16 00:00:00-04:00,125.44137989646963,125.51032507760185,124.26930430276053,124.8011703491211,275200,0.0,0.0
2023-10-17 00:00:00-04:00,124.11172912949101,126.4066232198593,124.11172912949101,125.55958557128906,314400,0.0,0.0
2023-10-18 00:00:00-04:00,124.95878055658882,125.74672451706186,124.3776646530701,124.87013244628906,287300,0.0,0.0
2023-10-19 00:00:00-04:00,124.18067870605452,125.54973854981024,123.50107075682972,123.83595275878906,443900,0.0,0.0
2023-10-20 00:00:00-04:00,124.03292439990166,124.5746419157682,120.09318250839613,120.37881469726562,446500,0.0,0.0
2023-10-23 00:00:00-04:00,119.88634948649754,121.30465900194697,119.38403028069895,119.66966247558594,379000,0.0,0.0
2023-10-24 00:00:00-04:00,120.2901701673284,121.90546378962974,119.88635051898383,121.48194122314453,312100,0.0,0.0
2023-10-25 00:00:00-04:00,120.98783390708984,122.32193004982163,120.45419394209233,120.92854309082031,431300,0.41,0.0
2023-10-26 00:00:00-04:00,119.83162224324822,123.9129702724296,119.83162224324822,121.97605895996094,576000,0.0,0.0
2023-10-27 00:00:00-04:00,122.01559371378868,122.38123049558588,118.94222716992682,119.74268341064453,364000,0.0,0.0
2023-10-30 00:00:00-04:00,120.48384848626635,120.87913821692635,119.42645279197745,120.73090362548828,283100,0.0,0.0
2023-10-31 00:00:00-04:00,121.0668978964798,121.44241897947953,120.39490764196373,120.82971954345703,422900,0.0,0.0
2023-11-01 00:00:00-04:00,120.67160832753754,121.97605911265033,120.17749806742626,121.48194885253906,360500,0.0,0.0
2023-11-02 00:00:00-04:00,122.26264837035367,122.82593378558079,121.53136727012583,122.12429809570312,384300,0.0,0.0
2023-11-03 00:00:00-04:00,122.96427493970207,124.48613538750294,122.96427493970207,123.8734359741211,278000,0.0,0.0
2023-11-06 00:00:00-05:00,123.79437631027992,124.24896436622109,123.28050497766334,123.71532440185547,173500,0.0,0.0
2023-11-07 00:00:00-05:00,123.15204561917379,123.51768239133312,122.70734185531134,123.08287048339844,205000,0.0,0.0
2023-11-08 00:00:00-05:00,123.40897795368349,124.01179308445136,122.94452063446629,123.64615631103516,175800,0.0,0.0
2023-11-09 00:00:00-05:00,124.20943327907183,124.20943327907183,122.60851340354475,122.92474365234375,118600,0.0,0.0
2023-11-10 00:00:00-05:00,122.77652022014401,124.308265103415,122.43064453217058,124.23908996582031,195600,0.0,0.0
2023-11-13 00:00:00-05:00,123.91297299029823,124.00191675951038,122.90499135621492,123.06310272216797,183100,0.0,0.0
2023-11-14 00:00:00-05:00,124.46637361252297,126.35387845706128,123.83391307203956,126.343994140625,267400,0.0,0.0
2023-11-15 00:00:00-05:00,126.3143475614149,127.28280699604653,125.8498827070265,126.20564270019531,388600,0.0,0.0
2023-11-16 00:00:00-05:00,126.14635167264116,127.1049192498191,125.34588791957243,126.04753112792969,217000,0.0,0.0
2023-11-17 00:00:00-05:00,127.04562613275004,127.55950501919288,126.10681966568688,126.42304992675781,162700,0.0,0.0
2023-11-20 00:00:00-05:00,125.94870215932512,126.14635078688451,124.940720547107,125.82023620605469,213900,0.0,0.0
2023-11-21 00:00:00-05:00,125.95858603909745,126.78869519292185,125.70164659392273,126.40328979492188,160600,0.0,0.0
2023-11-22 00:00:00-05:00,126.93691476594223,127.67808010915994,125.85975808610391,127.05551147460938,174800,0.0,0.0
2023-11-24 00:00:00-05:00,127.45081068313257,127.45081068313257,126.59106359523292,127.0159912109375,65900,0.0,0.0
2023-11-27 00:00:00-05:00,126.31433827436793,126.7886874102254,125.35576322655868,125.50399780273438,367500,0.0,0.0
2023-11-28 00:00:00-05:00,125.504004627321,125.51388894347652,124.01178954785065,124.13037872314453,218000,0.0,0.0
2023-11-29 00:00:00-05:00,124.16002759218779,124.91107731093103,123.44850759964413,123.8932113647461,331800,0.0,0.0
2023-11-30 00:00:00-05:00,123.97226185014588,125.63247263378987,123.33980131728381,125.39530181884766,301000,0.0,0.0
2023-12-01 00:00:00-05:00,124.93083848043351,127.02586119361783,124.93083848043351,126.59105682373047,218300,0.0,0.0
2023-12-04 00:00:00-05:00,125.94869726613702,127.36186039483064,125.39529620951916,126.90727233886719,192000,0.0,0.0
2023-12-05 00:00:00-05:00,126.7392779421962,127.17409737078592,124.39719266482523,124.50589752197266,178000,0.0,0.0
2023-12-06 00:00:00-05:00,124.90118504227478,125.80046929212959,124.39719048972401,124.88142395019531,179500,0.0,0.0
2023-12-07 00:00:00-05:00,124.75295250697287,125.61270704722888,124.50589738455122,125.00000762939453,254000,0.0,0.0
2023-12-08 00:00:00-05:00,124.87154541234229,125.99811620109602,124.14026433918309,125.82023620605469,265800,0.0,0.0
2023-12-11 00:00:00-05:00,125.76095292249371,126.1760037559498,124.85178426029628,126.06729888916016,338000,0.0,0.0
2023-12-12 00:00:00-05:00,126.1463510868967,126.5910548453198,125.1877759746455,125.97835540771484,210300,0.0,0.0
2023-12-13 00:00:00-05:00,125.68188460960275,127.47056885739063,125.68188460960275,127.07527160644531,425000,0.0,0.0
2023-12-14 00:00:00-05:00,127.55951044773897,128.47854832161434,125.38542071327007,125.89929962158203,412900,0.0,0.0
2023-12-15 00:00:00-05:00,125.66212560679767,127.06539694313376,124.48614076913015,124.49602508544922,713000,0.0,0.0
2023-12-18 00:00:00-05:00,125.21742212064312,125.71153238433733,124.39719727342491,125.55342102050781,240500,0.0,0.0
2023-12-19 00:00:00-05:00,126.20564229345229,126.62070064382776,124.5454315105232,124.74308013916016,659100,0.0,0.0
2023-12-20 00:00:00-05:00,124.53554704982824,125.44471566145563,123.9821459693349,124.09085083007812,346400,0.0,0.0
2023-12-21 00:00:00-05:00,124.75294875759722,124.75294875759722,123.37932292137825,124.42684173583984,421900,0.0,0.0
2023-12-22 00:00:00-05:00,124.91108153159732,125.54354209311228,124.6343809783751,124.78260803222656,312200,0.0,0.0
2023-12-26 00:00:00-05:00,124.65413953686287,125.37554385553965,124.1106152187143,124.34779357910156,274700,0.0,0.0
2023-12-27 00:00:00-05:00,124.63437705637008,124.98025273701381,123.5572127486232,123.80426788330078,283100,0.0,0.0
2023-12-28 00:00:00-05:00,123.50780990540973,124.31815046958467,122.9346401664867,123.72521209716797,343600,0.0,0.0
2023-12-29 00:00:00-05:00,123.71532421021986,123.88331988220698,122.1045200037436,122.163818359375,313500,0.0,0.0
2024-01-02 00:00:00-05:00,121.16571704448889,122.6381634898007,120.84948678362613,121.43253326416016,313100,0.0,0.0
2024-01-03 00:00:00-05:00,123.67579065057527,125.76093640028958,121.69934975336919,123.88331604003906,531700,0.0,0.0
2024-01-04 00:00:00-05:00,123.70544279171902,124.43672385242652,122.66780824839185,122.75675201416016,353300,0.0,0.0
2024-01-05 00:00:00-05:00,122.32193344846323,122.90498746956777,121.54123834128632,122.73698425292969,423000,0.0,0.0
2024-01-08 00:00:00-05:00,122.60851522989702,123.68567947872636,120.92854342178856,122.88521575927734,352400,0.0,0.0
2024-01-09 00:00:00-05:00,122.25275758637918,123.17180295623872,121.52147652483717,123.16191864013672,250300,0.0,0.0
2024-01-10 00:00:00-05:00,122.99392013349345,123.94261089030212,122.76663364504678,123.71532440185547,279600,0.0,0.0
2024-01-11 00:00:00-05:00,123.90309272803182,125.47436735964855,123.46828080279026,125.34589385986328,323100,0.0,0.0
2024-01-12 00:00:00-05:00,126.38351292943362,126.46257237503322,124.43671743380486,124.94071197509766,231700,0.0,0.0
2024-01-16 00:00:00-05:00,124.39720061596798,125.32613034932112,124.03156383630517,125.31624603271484,257500,0.0,0.0
2024-01-17 00:00:00-05:00,124.45648936589546,125.77081687111075,124.4070753262042,125.1976547241211,336900,0.0,0.0
2024-01-18 00:00:00-05:00,125.82023625809498,128.4785443290313,124.82213142219884,127.6187973022461,444200,0.0,0.0
2024-01-19 00:00:00-05:00,128.18209008005715,129.91147598730586,127.02585880393394,129.25924682617188,418000,0.0,0.0
2024-01-22 00:00:00-05:00,129.35804569822244,130.25732989071665,129.02205437763564,129.64463806152344,266200,0.0,0.0
2024-01-23 00:00:00-05:00,130.24745420313715,130.29686823988254,128.79476898129465,130.277099609375,217800,0.0,0.0
2024-01-24 00:00:00-05:00,130.5636832420236,130.73167891188575,129.00229309506915,129.23947143554688,294400,0.0,0.0
2024-01-25 00:00:00-05:00,130.47474445843625,130.82062764663073,128.84418675191344,129.7039337158203,332300,0.0,0.0
2024-01-26 00:00:00-05:00,130.12886723227166,131.02815149954128,129.85216670065762,130.1486358642578,219900,0.0,0.0
2024-01-29 00:00:00-05:00,129.50629241175295,131.02814526319688,128.95289137486424,130.69215393066406,187800,0.0,0.0
2024-01-30 00:00:00-05:00,130.47474422630816,131.5222554859971,130.0794620796869,130.69215393066406,228400,0.0,0.0
2024-01-31 00:00:00-05:00,131.2175488168734,131.6140753923471,128.03550435063644,128.74923706054688,537500,0.41,0.0
2024-02-01 00:00:00-05:00,129.3241702188752,129.96850501102756,128.48156460519286,129.3638153076172,298800,0.0,0.0
2024-02-02 00:00:00-05:00,128.82853516166915,129.57200543236544,127.56958793469315,128.96731567382812,344800,0.0,0.0
2024-02-05 00:00:00-05:00,128.00577179741288,130.30556552210692,126.9351726903174,129.5125274658203,319500,0.0,0.0
2024-02-06 00:00:00-05:00,129.34400751468976,130.2559959724917,128.17428812075116,129.9883575439453,369700,0.0,0.0
2024-02-07 00:00:00-05:00,130.2659228755762,131.26712417582533,128.24367503772052,130.65252685546875,393000,0.0,0.0
2024-02-08 00:00:00-05:00,130.49390979357565,133.6660467963085,130.39477436732616,130.9697265625,620700,0.0,0.0
2024-02-09 00:00:00-05:00,130.95981501793833,137.99800653748164,130.3650327307306,137.75018310546875,650900,0.0,0.0
2024-02-12 00:00:00-05:00,137.94843452529844,139.2470268484113,136.31279084943992,136.41192626953125,491300,0.0,0.0
2024-02-13 00:00:00-05:00,135.4999597846696,136.13438724835154,133.80484063314395,134.74656677246094,275900,0.0,0.0
2024-02-14 00:00:00-05:00,135.07368805267203,136.26325271615664,133.99318143841845,135.97576904296875,335000,0.0,0.0
2024-02-15 00:00:00-05:00,135.9757796515362,136.61020712945134,133.39842464010636,133.86431884765625,471400,0.0,0.0
2024-02-16 00:00:00-05:00,134.19141146940265,136.7985185102983,133.8642827622,136.30287170410156,453900,0.0,0.0
2024-02-20 00:00:00-05:00,135.94601402085385,138.91989504664994,135.75766580240287,138.47381591796875,373000,0.0,0.0
2024-02-21 00:00:00-05:00,137.86913947554837,138.8901708495271,137.77992666639122,138.7811279296875,276300,0.0,0.0
2024-02-22 00:00:00-05:00,139.24703328340902,141.180053056989,138.8505218366026,140.2383270263672,295700,0.0,0.0
2024-02-23 00:00:00-05:00,140.73397752354722,140.81328284014006,139.37590990100838,140.12928771972656,190300,0.0,0.0
2024-02-26 00:00:00-05:00,140.2680761335312,140.8231982549688,139.5741734817342,140.68441772460938,199200,0.0,0.0
2024-02-27 00:00:00-05:00,140.68439280321402,140.9421237065279,138.58285510834838,139.08840942382812,244600,0.0,0.0
2024-02-28 00:00:00-05:00,138.43416809390393,140.01033667439933,138.11696195491015,139.18756103515625,189600,0.0,0.0
2024-02-29 00:00:00-05:00,139.40565497538333,140.396948797008,138.6126168928949,139.2371368408203,250600,0.0,0.0
2024-03-01 00:00:00-05:00,138.6621693304686,139.5642351130347,138.3449480820494,139.06858825683594,151400,0.0,0.0
2024-03-04 00:00:00-05:00,139.46512794883685,140.88267083058346,139.33625491378967,140.7240753173828,260300,0.0,0.0
2024-03-05 00:00:00-05:00,141.03136662496232,141.96318517392672,140.50598214538743,141.27919006347656,190200,0.0,0.0
2024-03-06 00:00:00-05:00,141.68560621173435,142.38943141864434,141.2395270563974,141.82440185546875,184000,0.0,0.0
2024-03-07 00:00:00-05:00,143.2419369981293,143.87636434934632,142.58767953801575,143.390625,250100,0.0,0.0
2024-03-08 00:00:00-05:00,143.45012922799398,143.8069955930077,141.72527260943724,141.84422302246094,185200,0.0,0.0
2024-03-11 00:00:00-04:00,141.54682126117743,142.13169604193249,140.7438757815281,141.4972686767578,226700,0.0,0.0
2024-03-12 00:00:00-04:00,141.5567547257704,141.60632243992973,140.24823967648902,141.17015075683594,242200,0.0,0.0
2024-03-13 00:00:00-04:00,141.75499169716946,141.75499169716946,139.70300658487778,139.93101501464844,336800,0.0,0.0
2024-03-14 00:00:00-04:00,140.12929766345746,140.38702861621618,139.1380038246175,139.70303344726562,235200,0.0,0.0
2024-03-15 00:00:00-04:00,138.82076653015324,141.1701429429702,138.5233905135426,139.7724151611328,599500,0.0,0.0
2024-03-18 00:00:00-04:00,139.70302038648921,140.06980935821068,137.72043289416052,138.0475616455078,299700,0.0,0.0
2024-03-19 00:00:00-04:00,137.67087488880983,139.09834024725149,137.67087488880983,138.29537963867188,253000,0.0,0.0
2024-03-20 00:00:00-04:00,138.41435230223198,138.85052397600484,137.92861291535908,138.7513885498047,220000,0.0,0.0
2024-03-21 00:00:00-04:00,139.08843342098686,140.36721091891917,138.0872321084364,139.9112091064453,255800,0.0,0.0
2024-03-22 00:00:00-04:00,140.77361081986902,141.20978246160044,139.8219773524016,140.35726928710938,276000,0.0,0.0
2024-03-25 00:00:00-04:00,139.9706758510705,142.79586911672604,139.9409382483535,141.71536254882812,316300,0.0,0.0
2024-03-26 00:00:00-04:00,141.58648848098767,143.05359899938549,141.3783101375535,141.95326232910156,314200,0.0,0.0
2024-03-27 00:00:00-04:00,142.41915705286345,143.8862674213768,142.41915705286345,143.40054321289062,218200,0.0,0.0
2024-03-28 00:00:00-04:00,143.55916383297742,144.08454829465626,142.39933686940833,142.6372528076172,247800,0.0,0.0
2024-04-01 00:00:00-04:00,142.53811857132533,142.53811857132533,140.88265985977688,141.05117797851562,204400,0.0,0.0
2024-04-02 00:00:00-04:00,140.60509657020089,140.60509657020089,139.16772371206562,139.4056396484375,202600,0.0,0.0
2024-04-03 00:00:00-04:00,139.4452793146353,139.960756260409,138.65224135020063,139.65345764160156,258700,0.0,0.0
2024-04-04 00:00:00-04:00,140.59518971189533,141.5071781165175,139.7426765101487,140.51588439941406,403600,0.0,0.0
2024-04-05 00:00:00-04:00,140.14911948491763,141.51709461595203,139.72285529394162,140.49606323242188,288300,0.0,0.0
2024-04-08 00:00:00-04:00,140.4365711471719,141.14039630193804,139.16771647109113,139.2866668701172,312500,0.0,0.0
2024-04-09 00:00:00-04:00,139.19745233021874,139.8715398767991,138.1466834827859,139.08840942382812,242600,0.0,0.0
2024-04-10 00:00:00-04:00,137.76999877927764,138.99920845355638,137.2446143108546,138.18634033203125,200700,0.0,0.0
2024-04-11 00:00:00-04:00,138.04755907083242,138.8207669683444,137.24461357156548,137.918701171875,265300,0.0,0.0
2024-04-12 00:00:00-04:00,136.9670646336894,137.74027259948474,134.77631377258373,136.00550842285156,299200,0.0,0.0
2024-04-15 00:00:00-04:00,137.40322972923067,138.59277922513755,136.63002180059405,136.99679565429688,319600,0.0,0.0
2024-04-16 00:00:00-04:00,136.5903543367824,138.17643033118634,136.1641052997771,137.38339233398438,281700,0.0,0.0
2024-04-17 00:00:00-04:00,137.67086969395015,138.2656368202302,137.14548525906264,137.19503784179688,565400,0.0,0.0
2024-04-18 00:00:00-04:00,137.1851472645947,138.22600877134346,137.01662913507428,137.8988800048828,246600,0.0,0.0
2024-04-19 00:00:00-04:00,137.84931577236912,138.70182906002995,137.56184722085314,138.1268768310547,276600,0.0,0.0
2024-04-22 00:00:00-04:00,138.33502731615243,139.92108802823105,138.03763620578138,139.09832763671875,298800,0.0,0.0
2024-04-23 00:00:00-04:00,138.55312824028502,139.93102591361165,138.30530480892452,138.9298095703125,417200,0.0,0.0
2024-04-24 00:00:00-04:00,139.13860773601874,140.08309687938592,138.83040745274005,139.19825744628906,559200,0.41,0.0
2024-04-25 00:00:00-04:00,139.0292386706214,140.4310674806865,138.11457442322126,139.3672637939453,694400,0.0,0.0
2024-04-26 00:00:00-04:00,141.17671738557638,147.6489684748245,141.07729109393654,142.49900817871094,489500,0.0,0.0
2024-04-29 00:00:00-04:00,144.05989608090238,147.16181733326363,143.53297011620526,145.5313262939453,676700,0.0,0.0
2024-04-30 00:00:00-04:00,144.89503861467492,145.25295202466614,143.2247709779419,143.5429229736328,585100,0.0,0.0
2024-05-01 00:00:00-04:00,144.1493863720236,146.35651652986462,143.74175981802546,144.53712463378906,359600,0.0,0.0
2024-05-02 00:00:00-04:00,144.914913867979,145.8792912599076,144.44763759888693,145.07398986816406,356500,0.0,0.0
2024-05-03 00:00:00-04:00,146.25708021006977,146.27696850093866,144.00023706156148,145.9588165283203,303300,0.0,0.0
2024-05-06 00:00:00-04:00,146.9033104690389,148.21566464459445,146.30679825586762,148.17588806152344,260200,0.0,0.0
2024-05-07 00:00:00-04:00,147.46008217334202,149.50813634180696,147.46008217334202,148.85195922851562,392900,0.0,0.0
2024-05-08 00:00:00-04:00,148.851952516239,149.99527896212328,148.61333853025974,149.91574096679688,223500,0.0,0.0
2024-05-09 00:00:00-04:00,150.12453415300365,150.8502975207552,147.76827976285352,148.21566772460938,299100,0.0,0.0
2024-05-10 00:00:00-04:00,148.08642917571808,148.13614232465676,147.23141459307158,147.6291046142578,186300,0.0,0.0
2024-05-13 00:00:00-04:00,147.66885717155736,148.6133462634333,146.00854125481663,147.01268005371094,167500,0.0,0.0
2024-05-14 00:00:00-04:00,147.4401857000379,147.4501222604799,146.61499607371425,147.04249572753906,137600,0.0,0.0
2024-05-15 00:00:00-04:00,147.102167082445,147.47995361006247,145.91906401390577,146.4261016845703,211100,0.0,0.0
2024-05-16 00:00:00-04:00,146.51557301812144,147.042498969268,145.58102052504745,146.68458557128906,235500,0.0,0.0
2024-05-17 00:00:00-04:00,146.99279178758786,147.31092858235036,146.27696503647144,146.81382751464844,169500,0.0,0.0
2024-05-20 00:00:00-04:00,146.73430448574354,147.54955760165925,146.1874902214491,147.31094360351562,163400,0.0,0.0
2024-05-21 00:00:00-04:00,147.08227500823682,147.81797492279415,146.2371970752046,147.72850036621094,280400,0.0,0.0
2024-05-22 00:00:00-04:00,147.21152602409944,147.96711422959115,146.61499864007018,147.92733764648438,283300,0.0,0.0
2024-05-23 00:00:00-04:00,147.7981084397933,148.0864204140624,146.7044799091405,146.86355590820312,171700,0.0,0.0
2024-05-24 00:00:00-04:00,147.61915308465808,147.96712995738272,146.50565136445627,147.23141479492188,162300,0.0,0.0
2024-05-28 00:00:00-04:00,146.76413330685176,146.92320930991465,144.9745813685235,145.8594207763672,318400,0.0,0.0
2024-05-29 00:00:00-04:00,144.8055608458342,145.84947630873282,143.67217081562745,144.00025939941406,229700,0.0,0.0
2024-05-30 00:00:00-04:00,144.28858574012926,146.1278509067867,144.15933458565246,145.292724609375,328100,0.0,0.0
2024-05-31 00:00:00-04:00,145.24299539146205,146.97291267642265,145.07398283832615,146.83372497558594,358900,0.0,0.0
2024-06-03 00:00:00-04:00,147.6390352585539,147.6390352585539,145.43190503298203,147.30101013183594,266200,0.0,0.0
2024-06-04 00:00:00-04:00,146.79394812461462,147.52966321073654,145.84945907277913,147.33082580566406,287900,0.0,0.0
2024-06-05 00:00:00-04:00,146.86355577498975,147.34076860142255,146.2272669496386,147.06239318847656,229200,0.0,0.0
2024-06-06 00:00:00-04:00,147.15185656875352,147.15185656875352,144.55698831854846,145.11375427246094,197600,0.0,0.0
2024-06-07 00:00:00-04:00,144.92485667565106,145.48160747169428,144.60670469487127,144.7061309814453,179100,0.0,0.0
2024-06-10 00:00:00-04:00,143.99030717125453,144.96462108446894,143.15518095992786,144.7458953857422,125800,0.0,0.0
2024-06-11 00:00:00-04:00,144.069842198694,144.8950318322786,143.51309140261802,144.6564178466797,147700,0.0,0.0
2024-06-12 00:00:00-04:00,145.39213888233263,145.4617251495329,143.234721873972,144.98451232910156,221300,0.0,0.0
2024-06-13 00:00:00-04:00,145.04416203536522,145.68045085271436,144.17921095389806,144.98451232910156,232400,0.0,0.0
2024-06-14 00:00:00-04:00,144.2487917043436,144.53711883402036,142.84696297947195,143.9107666015625,141500,0.0,0.0
2024-06-17 00:00:00-04:00,144.03007123818756,145.82957483514926,143.7318227074485,145.4816131591797,303800,0.0,0.0
2024-06-18 00:00:00-04:00,145.63073417824452,146.83372551658982,145.62079761754873,145.8395233154297,219900,0.0,0.0
2024-06-20 00:00:00-04:00,145.8097081220493,146.67465923985355,144.82544241638323,144.96463012695312,199900,0.0,0.0
2024-06-21 00:00:00-04:00,145.02426713243977,146.28690814864567,144.46751633892825,145.99859619140625,444100,0.0,0.0
2024-06-24 00:00:00-04:00,146.3664553693474,147.37059417305838,145.81964110185237,145.86935424804688,182900,0.0,0.0
2024-06-25 00:00:00-04:00,145.93892924098893,145.94888097165233,143.66221295627713,144.02012634277344,194500,0.0,0.0
2024-06-26 00:00:00-04:00,143.4136783501354,143.9505409043724,142.13116408870536,142.87681579589844,192400,0.0,0.0
2024-06-27 00:00:00-04:00,143.03587341308594,143.04582514463127,141.4451589090506,143.03587341308594,377300,0.0,0.0
2024-06-28 00:00:00-04:00,142.9463882562167,143.48326592890723,139.27777978400968,139.9936065673828,435100,0.0,0.0
2024-07-01 00:00:00-04:00,140.56031649992028,140.65972762098727,137.58764636312122,137.7367706298828,306400,0.0,0.0
2024-07-02 00:00:00-04:00,137.6771168664537,139.6854095648267,136.96129006644594,139.5859832763672,259400,0.0,0.0
2024-07-03 00:00:00-04:00,140.063219987868,140.58019424318394,139.75501971288125,140.4012451171875,143300,0.0,0.0
2024-07-05 00:00:00-04:00,140.17258910255097,140.61997710784055,138.91988448335212,140.08309936523438,207000,0.0,0.0
2024-07-08 00:00:00-04:00,140.8287476496575,141.67382566032194,140.67962337498633,140.68955993652344,249300,0.0,0.0
2024-07-09 00:00:00-04:00,140.04332622757835,140.45095278130893,138.93976114938218,139.2280731201172,238400,0.0,0.0
2024-07-10 00:00:00-04:00,139.93396267066512,140.808865480054,139.75501355255665,140.4708251953125,142000,0.0,0.0
2024-07-11 00:00:00-04:00,140.38135020760953,142.46918093443176,139.93396224338247,141.2661895751953,244500,0.0,0.0
2024-07-12 00:00:00-04:00,142.5785575352512,144.64650016944287,142.5785575352512,143.751708984375,263900,0.0,0.0
2024-07-15 00:00:00-04:00,143.92070998156234,144.8453259480649,142.31010721643665,142.59841918945312,319900,0.0,0.0
2024-07-16 00:00:00-04:00,143.01600293382853,144.45759319455206,143.01600293382853,143.7218780517578,178800,0.0,0.0
2024-07-17 00:00:00-04:00,143.50313696887406,144.92485395451703,143.50313696887406,144.02012634277344,242300,0.0,0.0
2024-07-18 00:00:00-04:00,143.77158413178512,146.39627739473178,143.7616475708671,145.43190002441406,434200,0.0,0.0
2024-07-19 00:00:00-04:00,145.74009743474508,145.74009743474508,143.82129446289454,145.0938720703125,251200,0.0,0.0
2024-07-22 00:00:00-04:00,145.14359967477395,146.7044894018996,144.40788450924526,146.33663940429688,235700,0.0,0.0
2024-07-23 00:00:00-04:00,147.01267493335766,147.64896373659573,144.82543312037194,145.1932830810547,234500,0.0,0.0
2024-07-24 00:00:00-04:00,145.22312418531487,145.77987499600405,143.06569203841158,143.30430603027344,250600,0.0,0.0
2024-07-25 00:00:00-04:00,142.4466137172535,143.66334017802635,140.84093471363238,141.11021423339844,558100,0.45,0.0
2024-07-26 00:00:00-04:00,142.7458185274977,150.8839040725973,141.9679134034649,146.26634216308594,562800,0.0,0.0
2024-07-29 00:00:00-04:00,146.18654807363913,147.9518012557539,144.78032917910988,147.4032745361328,390900,0.0,0.0
2024-07-30 00:00:00-04:00,146.98440955393974,147.50300282044066,145.01969618270712,145.35877990722656,411000,0.0,0.0
2024-07-31 00:00:00-04:00,146.10677238813136,148.4504707285892,145.0197017612093,146.58547973632812,280600,0.0,0.0
2024-08-01 00:00:00-04:00,146.48575417142177,149.13860271713426,145.03963404176758,146.63534545898438,335300,0.0,0.0
2024-08-02 00:00:00-04:00,146.1865607027143,146.60543153811187,143.36415499050057,145.2989501953125,213500,0.0,0.0
2024-08-05 00:00:00-04:00,143.04500195071893,143.04500195071893,139.10560747243943,140.30238342285156,448500,0.0,0.0
2024-08-06 00:00:00-04:00,140.9506421425725,145.69785981497913,140.7312314517885,144.5409698486328,476000,0.0,0.0
2024-08-07 00:00:00-04:00,145.61807332642232,146.86471806655007,143.08489791032852,143.2145538330078,353600,0.0,0.0
2024-08-08 00:00:00-04:00,144.07225793334294,145.76769187651146,144.07225793334294,145.16929626464844,268600,0.0,0.0
2024-08-09 00:00:00-04:00,145.01970173177108,145.01970173177108,143.08490654350197,143.56361389160156,263200,0.0,0.0
2024-08-12 00:00:00-04:00,143.58356293459363,143.7929907393466,142.38678696822322,142.90538024902344,221100,0.0,0.0
2024-08-13 00:00:00-04:00,143.12479067928683,144.9099945543652,142.71590275055541,143.98248291015625,212000,0.0,0.0
2024-08-14 00:00:00-04:00,143.74314177678474,144.42130926648593,143.10486022619372,143.5137481689453,115700,0.0,0.0
2024-08-15 00:00:00-04:00,144.61078772865739,146.94450299558522,144.61078772865739,146.61538696289062,277500,0.0,0.0
2024-08-16 00:00:00-04:00,145.7178086429149,146.4458448984164,145.21915075490517,146.326171875,250600,0.0,0.0
2024-08-19 00:00:00-04:00,145.9272513224637,147.33345499792665,145.52831588225743,146.57550048828125,191200,0.0,0.0
2024-08-20 00:00:00-04:00,146.58547636304425,147.91190824245643,146.58547636304425,147.7124481201172,387200,0.0,0.0
2024-08-21 00:00:00-04:00,147.77227873284713,149.16852996911774,147.06419304414976,148.92916870117188,267300,0.0,0.0
2024-08-22 00:00:00-04:00,149.16853288609883,149.99629161604025,148.27093952712292,148.590087890625,200400,0.0,0.0
2024-08-23 00:00:00-04:00,149.25828872832403,150.1259486188488,149.03887803129888,150.03619384765625,221400,0.0,0.0
2024-08-26 00:00:00-04:00,150.27553600322852,152.26019990468,149.7369921722213,149.75694274902344,235500,0.0,0.0
2024-08-27 00:00:00-04:00,149.6073354575319,151.133227391442,149.4377936001898,150.7941436767578,208300,0.0,0.0
2024-08-28 00:00:00-04:00,150.5248764586845,151.56209348205394,150.5248764586845,151.13323974609375,249000,0.0,0.0
2024-08-29 00:00:00-04:00,152.14052586050624,152.49956015138338,150.8041263625091,151.87124633789062,187100,0.0,0.0
2024-08-30 00:00:00-04:00,151.79146048136437,153.0281375417213,151.23296607276166,152.77880859375,178500,0.0,0.0
2024-09-03 00:00:00-04:00,151.7017037750138,151.97098329637666,149.32808735093408,149.6372528076172,362400,0.0,0.0
2024-09-04 00:00:00-04:00,149.19845240971176,150.49495079841,149.19845240971176,150.32540893554688,175800,0.0,0.0
2024-09-05 00:00:00-04:00,150.67447925817638,151.35264672627906,149.54750748684052,150.31544494628906,200600,0.0,0.0
2024-09-06 00:00:00-04:00,149.9763613557829,152.70899702647708,149.9763613557829,151.9709930419922,319100,0.0,0.0
2024-09-09 00:00:00-04:00,152.16047510581276,152.64915009618142,151.03350341028641,151.5022430419922,241500,0.0,0.0
2024-09-10 00:00:00-04:00,151.46235157142956,152.37988031700135,151.03351306529763,151.1033172607422,158100,0.0,0.0
2024-09-11 00:00:00-04:00,150.38525079268496,150.4750207850162,148.23106011554742,150.43511962890625,178000,0.0,0.0
2024-09-12 00:00:00-04:00,150.4849887540154,151.60197764192228,149.56745999354442,151.5521240234375,200400,0.0,0.0
2024-09-13 00:00:00-04:00,151.78149156962914,152.5992825990635,151.492261470345,151.87124633789062,138600,0.0,0.0
2024-09-16 00:00:00-04:00,152.62921458132197,152.7588705145806,151.66183218445363,152.57936096191406,182900,0.0,0.0
2024-09-17 00:00:00-04:00,153.5866296991098,155.15242277397783,151.46234222382526,152.61923217773438,259900,0.0,0.0
2024-09-18 00:00:00-04:00,153.3472690170848,155.07263627515385,152.30009962123864,152.6591339111328,214200,0.0,0.0
2024-09-19 00:00:00-04:00,154.60390786200904,158.38372825071872,154.60390786200904,156.47885131835938,412400,0.0,0.0
2024-09-20 00:00:00-04:00,155.8904363617549,155.8904363617549,154.06534655021557,155.49151611328125,663300,0.0,0.0
2024-09-23 00:00:00-04:00,155.75080963595366,156.48882882047508,154.32465531926172,155.5413818359375,315800,0.0,0.0
2024-09-24 00:00:00-04:00,155.7607751810832,156.65836853663214,155.61118389740747,156.20957946777344,246200,0.0,0.0
2024-09-25 00:00:00-04:00,156.87777486028946,157.44623694025017,155.4516053850471,156.71820068359375,284100,0.0,0.0
2024-09-26 00:00:00-04:00,157.5160583780924,158.6330471936873,157.2766971099658,157.9548797607422,371600,0.0,0.0
2024-09-27 00:00:00-04:00,158.25407181382246,161.11637865217875,157.83520098285544,159.46083068847656,354300,0.0,0.0
2024-09-30 00:00:00-04:00,158.86243164794053,159.98940340400793,158.50339734091747,159.76002502441406,289800,0.0,0.0
2024-10-01 00:00:00-04:00,160.10908102182546,160.10908102182546,158.62309013398428,159.54061889648438,192200,0.0,0.0
2024-10-02 00:00:00-04:00,159.4309042020019,159.6802331516974,157.53601027144867,158.32388305664062,186900,0.0,0.0
2024-10-03 00:00:00-04:00,157.56593495409092,160.02930629497408,156.21955248369235,158.5133819580078,367000,0.0,0.0
2024-10-04 00:00:00-04:00,159.51069006003982,161.0365820029643,158.90232681876836,160.1489715576172,350500,0.0,0.0
2024-10-07 00:00:00-04:00,158.96217139030824,159.21150035071827,157.58587065913858,158.26405334472656,223300,0.0,0.0
2024-10-08 00:00:00-04:00,157.85514229856898,158.59316146287298,156.67831696887936,158.2440948486328,205900,0.0,0.0
2024-10-09 00:00:00-04:00,157.92496457453083,159.62039840768432,157.69557098143002,159.27133178710938,152600,0.0,0.0
2024-10-10 00:00:00-04:00,157.62577532209792,158.9522072471334,157.62577532209792,158.79263305664062,168500,0.0,0.0
2024-10-11 00:00:00-04:00,160.50801550631274,161.48538077936988,159.91960280646023,161.1163787841797,194400,0.0,0.0
2024-10-14 00:00:00-04:00,164.5471496015545,167.3097035833241,163.02125754964115,166.74124145507812,469700,0.0,0.0
2024-10-15 00:00:00-04:00,166.8708837749407,169.2045990501098,166.0431098506034,168.2272186279297,397300,0.0,0.0
2024-10-16 00:00:00-04:00,168.2471783490178,168.74583626660103,165.47464154468156,165.5943145751953,330000,0.0,0.0
2024-10-17 00:00:00-04:00,166.53178529804745,167.86820001373155,166.07302855953967,167.43934631347656,238200,0.0,0.0
2024-10-18 00:00:00-04:00,168.64610780732278,168.64610780732278,167.32964364723057,168.1773681640625,171500,0.0,0.0
2024-10-21 00:00:00-04:00,168.01780020340925,168.0377507811335,165.85362666420463,165.883544921875,217900,0.0,0.0
2024-10-22 00:00:00-04:00,165.27517443013002,165.92342360843475,164.3676134062384,165.36492919921875,228500,0.0,0.0
2024-10-23 00:00:00-04:00,166.06305748263202,167.52911300642305,165.71400606419698,167.1999969482422,318100,0.0,0.0
2024-10-24 00:00:00-04:00,168.32000732421875,168.3300018310547,166.14999389648438,166.5500030517578,547300,0.45,0.0
2024-10-25 00:00:00-04:00,168.9199981689453,169.85000610351562,164.61000061035156,168.91000366210938,518900,0.0,0.0
2024-10-28 00:00:00-04:00,169.89999389648438,171.41000366210938,168.75999450683594,169.10000610351562,350000,0.0,0.0
2024-10-29 00:00:00-04:00,169.02999877929688,169.49000549316406,167.63999938964844,168.6999969482422,338100,0.0,0.0
2024-10-30 00:00:00-04:00,168.35000610351562,170.1999969482422,168.1199951171875,169.02999877929688,290300,0.0,0.0
2024-10-31 00:00:00-04:00,169.08999633789062,170.27999877929688,167.86000061035156,167.91000366210938,329900,0.0,0.0
2024-11-01 00:00:00-04:00,168.10000610351562,170.99000549316406,167.6199951171875,169.41000366210938,316300,0.0,0.0
2024-11-04 00:00:00-05:00,169.6300048828125,170.57000732421875,168.17999267578125,168.25999450683594,191800,0.0,0.0
2024-11-05 00:00:00-05:00,167.74000549316406,170.36000061035156,167.74000549316406,170.30999755859375,206200,0.0,0.0
2024-11-06 00:00:00-05:00,175.14999389648438,175.14999389648438,172.13999938964844,173.16000366210938,264100,0.0,0.0
2024-11-07 00:00:00-05:00,174.1999969482422,175.4600067138672,173.5399932861328,174.7100067138672,412300,0.0,0.0
2024-11-08 00:00:00-05:00,174.6999969482422,177.83999633789062,174.49000549316406,175.75999450683594,309200,0.0,0.0
2024-11-11 00:00:00-05:00,176.32000732421875,178.02999877929688,175.89999389648438,176.14999389648438,189100,0.0,0.0
2024-11-12 00:00:00-05:00,176.64999389648438,177.24000549316406,174.9499969482422,175.6999969482422,179800,0.0,0.0
2024-11-13 00:00:00-05:00,175.5,176.38999938964844,175.0500030517578,175.5,168400,0.0,0.0
2024-11-14 00:00:00-05:00,175.14999389648438,175.7899932861328,173.91000366210938,174.10000610351562,198200,0.0,0.0
2024-11-15 00:00:00-05:00,172.97000122070312,173.75999450683594,166.1699981689453,166.49000549316406,620500,0.0,0.0
2024-11-18 00:00:00-05:00,166.38999938964844,167.82000732421875,164.3300018310547,166.69000244140625,384400,0.0,0.0
2024-11-19 00:00:00-05:00,166.4199981689453,167.6699981689453,166.1999969482422,166.89999389648438,287600,0.0,0.0
2024-11-20 00:00:00-05:00,167.0,168.94000244140625,165.64999389648438,168.72999572753906,221800,0.0,0.0
2024-11-21 00:00:00-05:00,168.69000244140625,170.22999572753906,167.74000549316406,169.8800048828125,205100,0.0,0.0
2024-11-22 00:00:00-05:00,170.17999267578125,172.07000732421875,170.17999267578125,171.50999450683594,241600,0.0,0.0
2024-11-25 00:00:00-05:00,172.0500030517578,174.02000427246094,171.74000549316406,172.5,270100,0.0,0.0
2024-11-26 00:00:00-05:00,172.86000061035156,172.86000061035156,171.16000366210938,172.0399932861328,140300,0.0,0.0
2024-11-27 00:00:00-05:00,172.6699981689453,173.8800048828125,171.52000427246094,171.72999572753906,167200,0.0,0.0
2024-11-29 00:00:00-05:00,172.58999633789062,173.49000549316406,172.08999633789062,172.9600067138672,117300,0.0,0.0
2024-12-02 00:00:00-05:00,172.97999572753906,173.11000061035156,170.83999633789062,172.75999450683594,170900,0.0,0.0
2024-12-03 00:00:00-05:00,173.4499969482422,173.4499969482422,171.08999633789062,172.39999389648438,160100,0.0,0.0
2024-12-04 00:00:00-05:00,171.88999938964844,172.88999938964844,171.02999877929688,172.58999633789062,173400,0.0,0.0
2024-12-05 00:00:00-05:00,172.00999450683594,172.44000244140625,170.52999877929688,171.10000610351562,245000,0.0,0.0
2024-12-06 00:00:00-05:00,171.60000610351562,172.64999389648438,170.85000610351562,171.14999389648438,209200,0.0,0.0
2024-12-09 00:00:00-05:00,171.55999755859375,173.47000122070312,170.22999572753906,170.7899932861328,301700,0.0,0.0
2024-12-10 00:00:00-05:00,170.72000122070312,171.3699951171875,168.19000244140625,170.91000366210938,287000,0.0,0.0
2024-12-11 00:00:00-05:00,171.8800048828125,174.10000610351562,171.75,172.30999755859375,418600,0.0,0.0
2024-12-12 00:00:00-05:00,171.6699981689453,172.60000610351562,170.77999877929688,171.63999938964844,178300,0.0,0.0
2024-12-13 00:00:00-05:00,170.91000366210938,171.0,169.82000732421875,170.1999969482422,153200,0.0,0.0
2024-12-16 00:00:00-05:00,170.13999938964844,170.92999267578125,167.58999633789062,167.6300048828125,236100,0.0,0.0
2024-12-17 00:00:00-05:00,166.89999389648438,166.91000366210938,162.83999633789062,163.08999633789062,511900,0.0,0.0
2024-12-18 00:00:00-05:00,163.69000244140625,164.4199981689453,157.91000366210938,158.2100067138672,468600,0.0,0.0
2024-12-19 00:00:00-05:00,158.50999450683594,161.57000732421875,158.22999572753906,158.8699951171875,404700,0.0,0.0
2024-12-20 00:00:00-05:00,158.72000122070312,159.77999877929688,157.47000122070312,158.17999267578125,730200,0.0,0.0
2024-12-23 00:00:00-05:00,157.1699981689453,158.89999389648438,156.9600067138672,158.52000427246094,194900,0.0,0.0
2024-12-24 00:00:00-05:00,158.77999877929688,159.4199981689453,157.9199981689453,159.35000610351562,100500,0.0,0.0
2024-12-26 00:00:00-05:00,158.4199981689453,159.6300048828125,158.4199981689453,158.85000610351562,164500,0.0,0.0
2024-12-27 00:00:00-05:00,157.82000732421875,159.5800018310547,157.61000061035156,158.14999389648438,111998,0.0,0.0
