Date,Open,High,Low,Close,Volume,Dividends,Stock Splits
2022-01-03 00:00:00-05:00,117.7417699108511,118.28027940431618,114.71263933682688,116.18392944335938,234900,0.0,0.0
2022-01-04 00:00:00-05:00,116.35702650721244,118.20335111744194,115.35693217584434,116.72244262695312,337300,0.0,0.0
2022-01-05 00:00:00-05:00,116.58781136097633,119.37653485819729,116.58781136097633,118.33797454833984,367600,0.0,0.0
2022-01-06 00:00:00-05:00,118.79955169677014,119.24189979950039,117.32826168762276,117.84754180908203,231900,0.0,0.0
2022-01-07 00:00:00-05:00,118.01102655202445,119.03996854306524,117.28980532456666,118.93418884277344,335100,0.0,0.0
2022-01-10 00:00:00-05:00,118.23218928382384,119.13612217799371,117.0109246460048,117.36672973632812,398400,0.0,0.0
2022-01-11 00:00:00-05:00,117.58789871816641,118.26104288073681,116.09737936456847,117.81868743896484,135500,0.0,0.0
2022-01-12 00:00:00-05:00,117.62638846449279,118.28029608591315,115.99162307926325,116.6455307006836,206600,0.0,0.0
2022-01-13 00:00:00-05:00,117.00132751464844,117.63600579025834,115.75121497689473,117.00132751464844,193200,0.0,0.0
2022-01-14 00:00:00-05:00,116.6262898505808,116.82823093188502,115.270397637069,116.5301284790039,179000,0.0,0.0
2022-01-18 00:00:00-05:00,115.98199419071385,116.74168145654316,114.27029692651394,115.75120544433594,232500,0.0,0.0
2022-01-19 00:00:00-05:00,116.12623915161626,117.2224948605692,115.87621373162852,116.76091003417969,252600,0.0,0.0
2022-01-20 00:00:00-05:00,116.18394023513841,117.61676446284861,114.25106514278475,114.27030181884766,297700,0.0,0.0
2022-01-21 00:00:00-05:00,114.64531938511239,115.46270191778048,111.38540025441127,111.91429138183594,351800,0.0,0.0
2022-01-24 00:00:00-05:00,111.15462046653742,112.75092709237597,109.65448254761812,112.53936767578125,329300,0.0,0.0
2022-01-25 00:00:00-05:00,110.31800511434675,112.45282121802009,108.76016455140191,111.5777359008789,470000,0.0,0.0
2022-01-26 00:00:00-05:00,111.33732330039199,113.03940949838646,110.01989722602293,110.76996612548828,1542500,0.0,0.0
2022-01-27 00:00:00-05:00,111.33732045421858,113.76062781461867,108.34665593341843,109.28905487060547,263900,0.0,0.0
2022-01-28 00:00:00-05:00,109.46215768903576,110.68342247487148,108.13510586030733,110.63534545898438,323100,0.0,0.0
2022-01-31 00:00:00-05:00,110.59686641221383,112.83745464520076,109.84679755565121,112.79899597167969,486300,0.0,0.0
2022-02-01 00:00:00-05:00,112.59705750622794,114.36645744640926,111.98161596268015,112.97209930419922,214000,0.0,0.0
2022-02-02 00:00:00-05:00,112.5861998960454,112.89491926665629,111.92052812343312,112.50902557373047,363600,0.38,0.0
2022-02-03 00:00:00-05:00,112.33536114021501,113.2422200758321,110.85929654202943,111.12942504882812,167700,0.0,0.0
2022-02-04 00:00:00-05:00,110.63739672883116,111.93980618442228,109.65335615540329,111.19695281982422,242700,0.0,0.0
2022-02-07 00:00:00-05:00,111.54426568873583,111.9398088933551,110.2997387778026,110.69528198242188,263300,0.0,0.0
2022-02-08 00:00:00-05:00,110.94612477389578,112.3353655611912,110.69528799608965,111.95911407470703,204200,0.0,0.0
2022-02-09 00:00:00-05:00,112.95279059783384,113.51234666500929,112.10380694820233,112.44147491455078,295900,0.0,0.0
2022-02-10 00:00:00-05:00,111.44777996065152,113.11679865055376,109.65335393490857,110.56986236572266,267100,0.0,0.0
2022-02-11 00:00:00-05:00,110.98470923620984,112.33535910619734,108.89120598597648,109.70159149169922,230600,0.0,0.0
2022-02-14 00:00:00-05:00,109.70159124837282,110.47339327535367,108.47636344302407,110.07784271240234,266600,0.0,0.0
2022-02-15 00:00:00-05:00,110.61810707546879,112.03628170733793,109.40252145913132,110.07784271240234,263000,0.0,0.0
2022-02-16 00:00:00-05:00,110.22255845732707,111.02330178636964,109.11309578413493,110.65669250488281,271400,0.0,0.0
2022-02-17 00:00:00-05:00,109.94278501710231,112.16171045663877,109.32534630288262,111.53462219238281,362400,0.0,0.0
2022-02-18 00:00:00-05:00,112.18100090372779,117.23628307832412,110.38656736106135,114.26486206054688,462300,0.0,0.0
2022-02-22 00:00:00-05:00,114.32274818353467,115.94352668004836,113.1843441519304,114.90159606933594,437200,0.0,0.0
2022-02-23 00:00:00-05:00,115.51902093577635,116.06892746537808,113.4544590625032,113.54129028320312,321100,0.0,0.0
2022-02-24 00:00:00-05:00,112.17135076836817,113.20363179146504,110.67599439758388,112.75020599365234,349300,0.0,0.0
2022-02-25 00:00:00-05:00,113.02998972858647,117.31347003167701,112.70197126043453,116.70568084716797,260100,0.0,0.0
2022-02-28 00:00:00-05:00,115.25856169342619,117.7283167242068,115.07525703208054,117.58360290527344,316300,0.0,0.0
2022-03-01 00:00:00-05:00,117.6607785974539,118.60623578727447,114.3516894737572,114.90159606933594,325700,0.0,0.0
2022-03-02 00:00:00-05:00,114.89194103908994,115.82774863405088,113.84036828876054,114.20697021484375,435100,0.0,0.0
2022-03-03 00:00:00-05:00,114.68934795342238,115.52868215621915,113.27117323624519,115.12348937988281,196100,0.0,0.0
2022-03-04 00:00:00-05:00,113.88863123315474,116.14614053534522,113.5413209773637,115.95319366455078,206700,0.0,0.0
2022-03-07 00:00:00-05:00,115.10417126406625,116.10751084955955,112.34498924407191,112.41252136230469,337300,0.0,0.0
2022-03-08 00:00:00-05:00,112.83703396810192,114.12015181149354,106.1609731390954,106.3056869506836,382800,0.0,0.0
2022-03-09 00:00:00-05:00,107.26079301190579,110.34798683599284,107.26079301190579,109.27711486816406,224800,0.0,0.0
2022-03-10 00:00:00-05:00,107.8878691733967,109.65336139286545,107.51161769848693,108.3027114868164,223200,0.0,0.0
2022-03-11 00:00:00-05:00,109.3060575309679,109.71125031809136,108.28341865241075,108.34130859375,237100,0.0,0.0
2022-03-14 00:00:00-04:00,108.84297720013325,111.82405530923883,108.7947368080296,110.48304748535156,173800,0.0,0.0
2022-03-15 00:00:00-04:00,111.03293738211981,112.80807902590456,110.0681885688855,112.69230651855469,199500,0.0,0.0
2022-03-16 00:00:00-04:00,113.57023670156563,114.91123702487893,110.32867995098754,112.865966796875,266800,0.0,0.0
2022-03-17 00:00:00-04:00,113.10716193065242,114.33239718752077,111.2066053703174,114.23592376708984,163300,0.0,0.0
2022-03-18 00:00:00-04:00,113.93683347735454,114.64110335027142,112.17134138097809,113.58952331542969,286800,0.0,0.0
2022-03-21 00:00:00-04:00,113.57988744553309,114.48674637616598,112.55724864055169,114.47710418701172,309100,0.0,0.0
2022-03-22 00:00:00-04:00,115.55763174152868,116.21366134288489,113.22294097452149,113.52201080322266,294100,0.0,0.0
2022-03-23 00:00:00-04:00,113.64743080624775,113.9368510789301,110.01997264378194,110.62776184082031,256800,0.0,0.0
2022-03-24 00:00:00-04:00,110.9461163878804,112.12311114810201,109.98136754972492,111.76615142822266,210100,0.0,0.0
2022-03-25 00:00:00-04:00,112.73090337776215,113.1264539453389,111.91086831478684,113.1071548461914,148000,0.0,0.0
2022-03-28 00:00:00-04:00,113.29046465727251,113.42552891567145,110.95577406443361,112.38359832763672,167300,0.0,0.0
2022-03-29 00:00:00-04:00,113.36764504605513,115.3743171596195,113.36764504605513,115.11383819580078,184700,0.0,0.0
2022-03-30 00:00:00-04:00,115.35501608258276,115.35501608258276,114.07189838581304,114.63145446777344,156600,0.0,0.0
2022-03-31 00:00:00-04:00,114.22627723671773,115.60586853065786,113.32906041813499,113.35800170898438,211200,0.0,0.0
2022-04-01 00:00:00-04:00,113.98509780970505,115.4225717838448,113.15541306640138,114.82442474365234,400800,0.0,0.0
2022-04-04 00:00:00-04:00,114.53499357856077,114.53499357856077,111.13907323997073,114.23592376708984,286300,0.0,0.0
2022-04-05 00:00:00-04:00,113.50271333845193,115.00771931724746,113.44482339741732,113.57989501953125,225300,0.0,0.0
2022-04-06 00:00:00-04:00,113.12645752431791,114.72793686308921,112.24853249657495,114.16838073730469,194300,0.0,0.0
2022-04-07 00:00:00-04:00,113.75354529377849,116.34871480598619,112.51866053027139,115.76986694335938,331900,0.0,0.0
2022-04-08 00:00:00-04:00,115.58656100312787,117.92125888759224,115.58656100312787,117.13016510009766,305300,0.0,0.0
2022-04-11 00:00:00-04:00,116.86002079189944,117.98878249437509,114.76651763916016,114.76651763916016,208000,0.0,0.0
2022-04-12 00:00:00-04:00,115.02701286874412,115.9531709156666,112.29677175598678,112.88526916503906,187400,0.0,0.0
2022-04-13 00:00:00-04:00,112.7694872307655,113.84035899318138,112.7694872307655,113.7245864868164,120200,0.0,0.0
2022-04-14 00:00:00-04:00,113.28081975550671,114.51569723179632,112.83703612249327,113.26152801513672,163300,0.0,0.0
2022-04-18 00:00:00-04:00,112.66337132113506,113.39658251974802,109.57617789610633,109.99102020263672,137100,0.0,0.0
2022-04-19 00:00:00-04:00,110.53128326543148,113.49306214993237,109.50865176746802,113.09751892089844,221600,0.0,0.0
2022-04-20 00:00:00-04:00,113.82107578973465,115.528678064067,113.19398754735957,115.28749084472656,141200,0.0,0.0
2022-04-21 00:00:00-04:00,116.0110568808747,116.10753030016171,114.16838292255746,114.74723815917969,178200,0.0,0.0
2022-04-22 00:00:00-04:00,114.41922437924455,114.41922437924455,112.32572091727545,112.50902557373047,179900,0.0,0.0
2022-04-25 00:00:00-04:00,112.39324592982716,112.39324592982716,108.2255310103666,111.33202362060547,379600,0.0,0.0
2022-04-26 00:00:00-04:00,110.70287261894532,111.65144601745483,106.89888282504552,107.03439331054688,295300,0.38,0.0
2022-04-27 00:00:00-04:00,107.38283852431339,109.36710319504371,107.02469949136398,107.53770446777344,231500,0.0,0.0
2022-04-28 00:00:00-04:00,107.6151462267897,108.64115622818377,106.03741289080882,108.50564575195312,289200,0.0,0.0
2022-04-29 00:00:00-04:00,108.91217939267737,112.71616900359386,108.91217939267737,111.14811706542969,640200,0.0,0.0
2022-05-02 00:00:00-04:00,111.71921260254112,113.2195169104692,108.47662728209515,109.75430297851562,457000,0.0,0.0
2022-05-03 00:00:00-04:00,109.3671131331046,111.67080609882824,109.0283369277827,110.18018341064453,225400,0.0,0.0
2022-05-04 00:00:00-04:00,109.72525786376724,113.03559818628545,109.10577923211825,113.00656127929688,346900,0.0,0.0
2022-05-05 00:00:00-04:00,111.78695577891453,112.45483415653653,108.28303126969195,109.18321228027344,179000,0.0,0.0
2022-05-06 00:00:00-04:00,108.10878579334016,108.13782269489067,106.24066881767092,107.66353607177734,331800,0.0,0.0
2022-05-09 00:00:00-04:00,106.47299250713762,107.53772095525542,103.2400888247913,103.57886505126953,276700,0.0,0.0
2022-05-10 00:00:00-04:00,104.11122118550323,105.14691268257285,100.6072966699728,101.18805694580078,411800,0.0,0.0
2022-05-11 00:00:00-04:00,101.0428628069812,103.9757084124212,100.19108158016333,100.72344207763672,297800,0.0,0.0
2022-05-12 00:00:00-04:00,100.394335109241,103.24006965273047,99.93940395326639,103.03679656982422,389300,0.0,0.0
2022-05-13 00:00:00-04:00,103.56917091667198,104.81780947090483,103.33686830197682,104.06282043457031,226900,0.0,0.0
2022-05-16 00:00:00-04:00,103.8498822682102,104.94364758398505,102.94001982027594,104.85653686523438,202500,0.0,0.0
2022-05-17 00:00:00-04:00,106.5988151067139,106.850480596032,104.75006073439316,105.4663314819336,311200,0.0,0.0
2022-05-18 00:00:00-04:00,104.52743205185301,105.40825757125037,100.2491556613249,100.73312377929688,325900,0.0,0.0
2022-05-19 00:00:00-04:00,100.07493788418445,101.24613997271686,98.98117247541491,100.1717300415039,357000,0.0,0.0
2022-05-20 00:00:00-04:00,101.61395273707559,101.92369204766783,94.0737283177563,96.5226058959961,796300,0.0,0.0
2022-05-23 00:00:00-04:00,97.71315567249178,101.23644282217688,96.47419852773663,100.87831115722656,545200,0.0,0.0
2022-05-24 00:00:00-04:00,101.14933157196936,102.23342276025205,99.52319848192883,101.58489990234375,567400,0.0,0.0
2022-05-25 00:00:00-04:00,100.16204494399477,101.89464430772557,99.1941087080584,101.10093688964844,493400,0.0,0.0
2022-05-26 00:00:00-04:00,102.31085373264554,103.52077398674385,101.90432229961264,103.11424255371094,188200,0.0,0.0
2022-05-27 00:00:00-04:00,103.53046511576306,105.43730079642663,103.53046511576306,105.3985824584961,178000,0.0,0.0
2022-05-31 00:00:00-04:00,104.6145426393693,105.92125498708732,102.94000982215965,103.65628051757812,306100,0.0,0.0
2022-06-01 00:00:00-04:00,104.04345984632769,104.45967270682254,102.24309792742133,103.8111572265625,313900,0.0,0.0
2022-06-02 00:00:00-04:00,104.14994005394632,106.5020254601185,103.40463238336682,106.30844116210938,145400,0.0,0.0
2022-06-03 00:00:00-04:00,105.23403335713091,106.24068797272348,104.76942069425444,105.31147003173828,139800,0.0,0.0
2022-06-06 00:00:00-04:00,106.07613458918318,107.25701804580146,104.85654017951946,105.74703979492188,207400,0.0,0.0
2022-06-07 00:00:00-04:00,105.15659407904302,106.80208275748781,104.92429144574002,106.647216796875,132900,0.0,0.0
2022-06-08 00:00:00-04:00,105.46633667646614,105.88254957420574,103.82084794666837,104.25641632080078,157700,0.0,0.0
2022-06-09 00:00:00-04:00,103.34654630355774,104.24672727782973,102.40765437932691,102.43669128417969,193800,0.0,0.0
2022-06-10 00:00:00-04:00,100.25883706255925,102.49476740382059,99.8232613256494,101.82688903808594,266800,0.0,0.0
2022-06-13 00:00:00-04:00,99.57159961244251,99.9200572354336,97.80995602277297,98.73917388916016,252100,0.0,0.0
2022-06-14 00:00:00-04:00,98.3520005631831,99.00051606257901,95.23524473236205,96.32901000976562,227900,0.0,0.0
2022-06-15 00:00:00-04:00,97.08400104994075,97.99385603039566,95.38043131870631,97.1517562866211,283300,0.0,0.0
2022-06-16 00:00:00-04:00,95.71921564085466,95.71921564085466,91.01504485201731,91.73131561279297,620400,0.0,0.0
2022-06-17 00:00:00-04:00,91.46029666727229,95.30300486521759,91.45062262154339,94.37378692626953,458500,0.0,0.0
2022-06-21 00:00:00-04:00,94.83839333326725,95.53530120293945,93.9769233103088,94.07372283935547,236100,0.0,0.0
2022-06-22 00:00:00-04:00,93.28001820478319,95.67081451687663,93.15418176720053,95.3030014038086,228200,0.0,0.0
2022-06-23 00:00:00-04:00,95.457876692609,96.13542912121936,94.05436468367671,95.7579345703125,152100,0.0,0.0
2022-06-24 00:00:00-04:00,96.84203193936061,99.35866489881057,96.47421141086544,99.32962799072266,327300,0.0,0.0
2022-06-27 00:00:00-04:00,99.32962424953357,100.81056558438327,98.7198196635829,100.24916076660156,185200,0.0,0.0
2022-06-28 00:00:00-04:00,100.87831833914302,101.02351025529859,98.71014318146077,99.40705108642578,280200,0.0,0.0
2022-06-29 00:00:00-04:00,99.19410257414143,100.55888874233769,98.09064853942277,100.07492065429688,220900,0.0,0.0
2022-06-30 00:00:00-04:00,99.0489145906363,100.18139818912574,98.11969671099618,99.90069580078125,205900,0.0,0.0
2022-07-01 00:00:00-04:00,100.02652036392473,101.31387724366627,98.88436277154985,101.1396484375,262300,0.0,0.0
2022-07-05 00:00:00-04:00,100.02651890131425,100.02651890131425,97.73251493589649,99.61998748779297,230200,0.0,0.0
2022-07-06 00:00:00-04:00,100.21043111164866,100.22979397063659,98.25520328558355,99.34896850585938,286400,0.0,0.0
2022-07-07 00:00:00-04:00,99.16505265831917,99.9878042691133,98.5842924625801,99.80389404296875,221200,0.0,0.0
2022-07-08 00:00:00-04:00,99.4360943652147,99.7264708098022,96.79362514934,96.80330657958984,208100,0.0,0.0
2022-07-11 00:00:00-04:00,96.60970556940609,96.90977080003546,95.31267466233992,96.35804748535156,186900,0.0,0.0
2022-07-12 00:00:00-04:00,96.28062260791725,98.58430828754024,96.03863853878497,97.28727722167969,284300,0.0,0.0
2022-07-13 00:00:00-04:00,96.53229875204018,98.0616326251704,96.31935156615953,97.44215393066406,202500,0.0,0.0
2022-07-14 00:00:00-04:00,96.38710223064585,96.70652299426597,95.18685585548567,96.11608123779297,199800,0.0,0.0
2022-07-15 00:00:00-04:00,97.57765114992404,97.57765114992404,96.02895462448811,96.80330657958984,195300,0.0,0.0
2022-07-18 00:00:00-04:00,97.34533212884443,97.71314518397288,94.56735289622542,94.95452880859375,179900,0.0,0.0
2022-07-19 00:00:00-04:00,95.3901182964889,97.84866981889978,95.3901182964889,97.79059600830078,635400,0.0,0.0
2022-07-20 00:00:00-04:00,97.44213918472897,99.19410879495037,97.43246513939367,98.55526733398438,458900,0.0,0.0
2022-07-21 00:00:00-04:00,98.6423811796512,100.27818832760123,98.32296046294894,100.16204071044922,138900,0.0,0.0
2022-07-22 00:00:00-04:00,100.28787967282975,100.64601875891454,99.04892240226421,100.2781982421875,214600,0.0,0.0
2022-07-25 00:00:00-04:00,100.3943597140703,101.15903031910753,99.61033363127126,100.58794403076172,267400,0.0,0.0
2022-07-26 00:00:00-04:00,100.170194048027,100.91823703799618,98.97525976217274,100.86966705322266,262200,0.38,0.0
2022-07-27 00:00:00-04:00,101.26797713599707,103.50240404727282,100.68508541492916,103.00694274902344,229200,0.0,0.0
2022-07-28 00:00:00-04:00,103.05552239303853,104.74591064453125,102.15203761154112,104.74591064453125,249800,0.0,0.0
2022-07-29 00:00:00-04:00,104.11443230820349,106.3682855815893,103.35667238009782,104.68761444091797,424400,0.0,0.0
2022-08-01 00:00:00-04:00,103.2692365701868,105.55223319668197,102.59890709408234,105.11505889892578,277000,0.0,0.0
2022-08-02 00:00:00-04:00,104.7847590047528,104.9596272459163,102.81263836999591,103.55096435546875,209700,0.0,0.0
2022-08-03 00:00:00-04:00,104.26987057651027,105.71738647853249,103.40524633735401,104.57102966308594,260700,0.0,0.0
2022-08-04 00:00:00-04:00,104.14356887627872,104.16300279779144,102.84177778596319,103.40524291992188,292600,0.0,0.0
2022-08-05 00:00:00-04:00,102.65720574797297,103.62869441577672,102.09374054179791,102.63777923583984,174600,0.0,0.0
2022-08-08 00:00:00-04:00,103.10409705994307,104.92078366764714,102.98752315502082,104.21159362792969,219300,0.0,0.0
2022-08-09 00:00:00-04:00,104.68762844593176,104.92078366764714,103.45383359845157,104.21159362792969,249200,0.0,0.0
2022-08-10 00:00:00-04:00,106.11570722319111,107.58264973048398,104.96935033351734,106.64030456542969,152900,0.0,0.0
2022-08-11 00:00:00-04:00,107.48551633560061,108.1169855150424,106.42659713975462,106.50431060791016,171100,0.0,0.0
2022-08-12 00:00:00-04:00,107.36891757783482,107.98096014380401,106.9997545754706,107.91295623779297,201300,0.0,0.0
2022-08-15 00:00:00-04:00,107.52437255092232,109.22447782238314,107.52437255092232,108.71930694580078,146500,0.0,0.0
2022-08-16 00:00:00-04:00,107.99068971917984,109.05932582926368,107.55351534787005,108.87474060058594,187700,0.0,0.0
2022-08-17 00:00:00-04:00,107.83523641022244,108.29183724578654,106.91232518947753,107.8643798828125,173100,0.0,0.0
2022-08-18 00:00:00-04:00,107.77694946504232,107.97124422355601,106.83460432132408,107.8643798828125,197300,0.0,0.0
2022-08-19 00:00:00-04:00,108.00038607847436,108.0878239068048,106.42657928722475,107.0191879272461,253400,0.0,0.0
2022-08-22 00:00:00-04:00,106.0574088475859,106.1934166588472,104.67789681229583,104.84304809570312,178300,0.0,0.0
2022-08-23 00:00:00-04:00,104.80418648532448,105.34822513613018,102.98750756450484,103.84241485595703,178000,0.0,0.0
2022-08-24 00:00:00-04:00,104.30874588649061,104.9887850215165,103.67727674004047,104.38645935058594,183000,0.0,0.0
2022-08-25 00:00:00-04:00,104.4738844157295,105.86311340332031,104.4738844157295,105.86311340332031,132900,0.0,0.0
2022-08-26 00:00:00-04:00,106.42659518155324,106.42659518155324,101.19998097993292,101.43314361572266,152000,0.0,0.0
2022-08-29 00:00:00-04:00,101.00568470995775,101.49142907623677,99.85932770906444,101.03482818603516,146800,0.0,0.0
2022-08-30 00:00:00-04:00,101.4622615758686,101.68569978080346,99.79130016562063,101.08338165283203,148900,0.0,0.0
2022-08-31 00:00:00-04:00,101.40398292129096,101.7731533529894,99.8204590853394,99.87874603271484,180300,0.0,0.0
2022-09-01 00:00:00-04:00,99.44159418622121,99.9370555496711,98.44096190786632,99.69418334960938,212200,0.0,0.0
2022-09-02 00:00:00-04:00,100.39364079788524,101.20969517710823,97.84834509430205,98.53810119628906,206000,0.0,0.0
2022-09-06 00:00:00-04:00,98.37295198868806,98.97527026450888,96.96428886711976,97.46946716308594,159300,0.0,0.0
2022-09-07 00:00:00-04:00,97.77061689954385,100.67536588048566,97.75119038781511,100.2964859008789,164200,0.0,0.0
2022-09-08 00:00:00-04:00,99.34442464384222,102.02572779829069,99.21812638436543,101.8994369506836,137900,0.0,0.0
2022-09-09 00:00:00-04:00,102.6669238946982,103.77442039582478,101.69543521568397,103.37611389160156,197100,0.0,0.0
2022-09-12 00:00:00-04:00,104.12415625437588,105.1830753501033,103.69669886651582,104.05615234375,154500,0.0,0.0
2022-09-13 00:00:00-04:00,102.16176428881748,102.73493911483325,101.0154072249147,101.05426025390625,271700,0.0,0.0
2022-09-14 00:00:00-04:00,100.8502387857127,101.33598313191014,99.52901357110605,100.62680053710938,250700,0.0,0.0
2022-09-15 00:00:00-04:00,100.30620731763389,102.39490948507253,100.27706384281134,102.20060729980469,423000,0.0,0.0
2022-09-16 00:00:00-04:00,101.35541068808473,101.35541068808473,98.50894870174065,99.71359252929688,579400,0.0,0.0
2022-09-19 00:00:00-04:00,98.94612310922372,101.56914705951068,98.93640614685118,101.54971313476562,194400,0.0,0.0
2022-09-20 00:00:00-04:00,100.50050314053937,100.50050314053937,97.81919966267736,98.29522705078125,157500,0.0,0.0
2022-09-21 00:00:00-04:00,98.88782852205546,99.3638558753593,96.78940952387761,96.8282699584961,173500,0.0,0.0
2022-09-22 00:00:00-04:00,96.31338680758618,96.31338680758618,94.49670031402535,95.32247161865234,199200,0.0,0.0
2022-09-23 00:00:00-04:00,94.16640160573118,95.50705336649696,94.16640160573118,95.28361511230469,274900,0.0,0.0
2022-09-26 00:00:00-04:00,94.72015137545267,95.64306270615747,93.68065872862766,94.63272094726562,364000,0.0,0.0
2022-09-27 00:00:00-04:00,95.1961709040066,95.98308175194913,92.51486756188235,93.32119750976562,238600,0.0,0.0
2022-09-28 00:00:00-04:00,93.99152515125796,95.69163025735305,93.31148607356793,95.43904113769531,237000,0.0,0.0
2022-09-29 00:00:00-04:00,94.44812249650889,94.48698292977633,93.52520388311383,94.01094818115234,206400,0.0,0.0
2022-09-30 00:00:00-04:00,93.37949074175435,94.97273151834811,92.16512994179752,92.32056427001953,471500,0.0,0.0
2022-10-03 00:00:00-04:00,93.70978790225621,95.22530772115896,92.93260148235186,94.66184997558594,274200,0.0,0.0
2022-10-04 00:00:00-04:00,96.2648026469998,96.98370955374973,95.70134488715861,96.40081787109375,262900,0.0,0.0
2022-10-05 00:00:00-04:00,95.29332235631225,96.6436984587531,94.26354671334018,95.3807601928711,201300,0.0,0.0
2022-10-06 00:00:00-04:00,94.8755870155402,95.40018437459374,93.57378834431347,94.95330047607422,202100,0.0,0.0
2022-10-07 00:00:00-04:00,94.16640301353934,94.16640301353934,90.93134375973084,91.3005142211914,119000,0.0,0.0
2022-10-10 00:00:00-04:00,91.69880883509646,92.74801830736921,91.23249845533292,91.67938232421875,177300,0.0,0.0
2022-10-11 00:00:00-04:00,91.12564687108541,92.92289955957183,90.63990250058255,92.0388412475586,369800,0.0,0.0
2022-10-12 00:00:00-04:00,92.05825419146502,92.05825419146502,90.61073096073336,90.7078857421875,147400,0.0,0.0
2022-10-13 00:00:00-04:00,88.47348180010476,92.32057643173498,87.65743479273068,91.86397552490234,237000,0.0,0.0
2022-10-14 00:00:00-04:00,92.6800243448799,93.18519521246711,91.42680302052216,92.36914825439453,319300,0.0,0.0
2022-10-17 00:00:00-04:00,93.2823346480487,94.59385022321766,93.2823346480487,94.54527282714844,344900,0.0,0.0
2022-10-18 00:00:00-04:00,96.42025075179662,97.12944074398997,95.30303729597603,96.44939422607422,281300,0.0,0.0
2022-10-19 00:00:00-04:00,95.89564883070547,96.38139318143047,94.80757881680805,95.40990447998047,359500,0.0,0.0
2022-10-20 00:00:00-04:00,95.28360389500314,95.88592208484869,92.70915761646472,93.3309097290039,185600,0.0,0.0
2022-10-21 00:00:00-04:00,92.83546121446595,95.1281752237361,91.83482900256439,94.73957824707031,176400,0.0,0.0
2022-10-24 00:00:00-04:00,95.1087465034713,95.98308782771456,94.49670387056567,95.09902954101562,158500,0.0,0.0
2022-10-25 00:00:00-04:00,94.0847457242299,96.97155776613539,93.597108404163,96.75699615478516,292500,0.38,0.0
2022-10-26 00:00:00-04:00,97.38117205813707,98.55150609951095,96.51317821718118,96.63996124267578,271900,0.0,0.0
2022-10-27 00:00:00-04:00,96.6594709024473,98.15163992250055,96.42540707047455,96.63996124267578,216700,0.0,0.0
2022-10-28 00:00:00-04:00,99.42924146767989,101.54559298281465,96.76674600397702,98.6295166015625,445300,0.0,0.0
2022-10-31 00:00:00-04:00,97.48846413220319,98.11263938344192,96.64972724320941,96.69849395751953,372900,0.0,0.0
2022-11-01 00:00:00-04:00,97.13735118574695,97.13735118574695,94.48460301457354,94.81620025634766,301300,0.0,0.0
2022-11-02 00:00:00-04:00,94.78695591862603,95.33310740095536,92.2317333791815,92.41703796386719,268400,0.0,0.0
2022-11-03 00:00:00-04:00,91.9488872434991,92.67058835738494,90.26166636799188,92.36825561523438,278300,0.0,0.0
2022-11-04 00:00:00-04:00,94.0554889664151,96.33762805982337,93.85068218424422,96.32787322998047,209100,0.0,0.0
2022-11-07 00:00:00-05:00,96.73748055443556,98.0345899914135,95.55739929600225,98.00533294677734,180700,0.0,0.0
2022-11-08 00:00:00-05:00,98.50274259061094,99.24395343014979,97.65425094110901,97.86881256103516,153100,0.0,0.0
2022-11-09 00:00:00-05:00,97.75177536009339,98.38569789053872,96.11331375242877,96.66921997070312,165300,0.0,0.0
2022-11-10 00:00:00-05:00,100.28749542497032,100.69710899782429,98.54175288456294,99.79985809326172,266000,0.0,0.0
2022-11-11 00:00:00-05:00,100.2972377623237,102.48185825568335,98.95136147327118,101.67237854003906,292600,0.0,0.0
2022-11-14 00:00:00-05:00,101.0482043347306,102.66715634052619,101.0482043347306,101.81867218017578,238400,0.0,0.0
2022-11-15 00:00:00-05:00,103.21330621428406,104.36413046755662,101.7016277030284,102.10149383544922,272500,0.0,0.0
2022-11-16 00:00:00-05:00,102.26729919618415,103.27183088339511,102.11125168244985,102.32581329345703,139300,0.0,0.0
2022-11-17 00:00:00-05:00,101.1457345899273,102.47210872926864,101.1457345899273,102.02348327636719,162700,0.0,0.0
2022-11-18 00:00:00-05:00,103.48637499462716,104.28609976539283,102.023463284147,103.41810607910156,213200,0.0,0.0
2022-11-21 00:00:00-05:00,103.4766298155874,104.0617930661947,102.33556036079001,102.54036712646484,193300,0.0,0.0
2022-11-22 00:00:00-05:00,102.6378862815607,104.02278172633092,102.6378862815607,103.37909698486328,284000,0.0,0.0
2022-11-23 00:00:00-05:00,103.36935558825755,104.13982343614973,102.96949686055054,103.56441497802734,202100,0.0,0.0
2022-11-25 00:00:00-05:00,103.91549585490912,103.91549585490912,102.94996878991924,103.29132080078125,114700,0.0,0.0
2022-11-28 00:00:00-05:00,102.44283395613587,102.8817045030489,100.68733688697594,100.94091033935547,208500,0.0,0.0
2022-11-29 00:00:00-05:00,100.45327488684775,101.52607536350794,100.3850059685354,100.75560760498047,181400,0.0,0.0
2022-11-30 00:00:00-05:00,100.34601275927093,103.55466739826333,98.99038152867075,103.51565551757812,297900,0.0,0.0
2022-12-01 00:00:00-05:00,104.13982879131224,105.11510346804789,103.87650790252593,104.4421615600586,156600,0.0,0.0
2022-12-02 00:00:00-05:00,103.63268313659964,105.86606290782451,103.47663562593972,105.37842559814453,167400,0.0,0.0
2022-12-05 00:00:00-05:00,104.21785324597815,104.28612217617454,103.06702882212815,104.06180572509766,153800,0.0,0.0
2022-12-06 00:00:00-05:00,103.91551476892162,104.4324091321323,102.76469040826663,104.35438537597656,247800,0.0,0.0
2022-12-07 00:00:00-05:00,104.09106792612305,105.48571099010417,103.57416610514326,103.67169952392578,152800,0.0,0.0
2022-12-08 00:00:00-05:00,103.81798096556507,105.27114551570692,103.81798096556507,105.26139068603516,190800,0.0,0.0
2022-12-09 00:00:00-05:00,105.16385934923228,106.28542660013909,104.9883096278664,105.38816833496094,316700,0.0,0.0
2022-12-12 00:00:00-05:00,105.77828600876349,106.09037359430248,104.83226842238612,105.40768432617188,209100,0.0,0.0
2022-12-13 00:00:00-05:00,107.65081382166188,108.36276759428272,104.92004925004925,105.53446960449219,328400,0.0,0.0
2022-12-14 00:00:00-05:00,105.75878008773033,107.55328178157113,104.57869871369823,105.563720703125,302500,0.0,0.0
2022-12-15 00:00:00-05:00,105.03707866587244,105.86606808547613,104.58845321191626,104.98831939697266,230000,0.0,0.0
2022-12-16 00:00:00-05:00,104.46165828214501,105.5832255096285,103.7594594113465,104.78350067138672,540600,0.0,0.0
2022-12-19 00:00:00-05:00,104.66647921791976,105.68076578632449,103.16455530551787,103.6326904296875,269800,0.0,0.0
2022-12-20 00:00:00-05:00,103.79846325671411,105.45642689725412,103.6424157682731,104.47140502929688,193300,0.0,0.0
2022-12-21 00:00:00-05:00,105.31015423995657,107.90438079833984,104.9102880836928,107.90438079833984,388500,0.0,0.0
2022-12-22 00:00:00-05:00,106.79256922537186,108.06042918791105,104.80300813869356,105.87580871582031,213800,0.0,0.0
2022-12-23 00:00:00-05:00,106.44146360348923,107.47525224361951,105.67099581746135,107.28995513916016,161500,0.0,0.0
2022-12-27 00:00:00-05:00,107.18268268041743,108.27498549736377,106.91935436507866,108.12870025634766,101700,0.0,0.0
2022-12-28 00:00:00-05:00,108.3139788840672,109.14296812566111,106.31467071036457,106.47071075439453,162700,0.0,0.0
2022-12-29 00:00:00-05:00,107.20218285300226,108.42127610990254,106.67553367313076,108.05067443847656,128700,0.0,0.0
2022-12-30 00:00:00-05:00,107.76785122528503,108.00191506308684,106.3244414372041,107.26071166992188,172300,0.0,0.0
2023-01-03 00:00:00-05:00,107.8458705434527,108.32375302950469,106.74380544770912,107.53378295898438,239200,0.0,0.0
2023-01-04 00:00:00-05:00,108.50904677939768,109.43555461076441,107.58253150727676,108.47978973388672,217200,0.0,0.0
2023-01-05 00:00:00-05:00,107.90439138957495,110.23529730953285,106.42197713081617,109.3478012084961,310000,0.0,0.0
2023-01-06 00:00:00-05:00,110.57662775494772,111.57141198035454,109.95245262717476,111.23981475830078,181500,0.0,0.0
2023-01-09 00:00:00-05:00,111.79572267053489,112.81976395806996,110.47910347281449,110.52787017822266,161800,0.0,0.0
2023-01-10 00:00:00-05:00,110.39133291098878,111.51289273371366,110.16701648199104,110.62539672851562,163000,0.0,0.0
2023-01-11 00:00:00-05:00,110.77169108746156,111.60067301105941,110.64490062711108,110.65465545654297,141300,0.0,0.0
2023-01-12 00:00:00-05:00,110.87896145938892,110.97648742227018,109.62085644818488,110.69365692138672,179100,0.0,0.0
2023-01-13 00:00:00-05:00,110.41082785334501,111.48362834046898,110.41082785334501,111.15203857421875,177700,0.0,0.0
2023-01-17 00:00:00-05:00,111.35685038504113,111.69819499542407,110.04023120741864,111.23981475830078,204500,0.0,0.0
2023-01-18 00:00:00-05:00,111.65918869723848,111.76646950025388,109.15273323186517,109.20149993896484,118900,0.0,0.0
2023-01-19 00:00:00-05:00,108.83088174001723,109.63061400148068,107.60204118381434,109.22099304199219,177400,0.0,0.0
2023-01-20 00:00:00-05:00,109.67937380115757,110.48885345458984,108.92841567979852,110.48885345458984,180800,0.0,0.0
2023-01-23 00:00:00-05:00,110.40108139917471,110.91798318579559,109.67938028083822,110.55712890625,165500,0.0,0.0
2023-01-24 00:00:00-05:00,110.23529999951324,110.35233564414831,108.99670438367004,110.04999542236328,172600,0.0,0.0
2023-01-25 00:00:00-05:00,109.07471005247224,109.7281497035842,107.75809080213567,109.29902648925781,181200,0.0,0.0
2023-01-26 00:00:00-05:00,109.72815262186917,110.09875430907252,109.05521073437004,110.00122833251953,139000,0.0,0.0
2023-01-27 00:00:00-05:00,109.72814165564401,110.14751000958971,109.09421171027199,109.94270324707031,204300,0.0,0.0
2023-01-30 00:00:00-05:00,108.9479281647212,110.52787574602776,108.7041095069072,110.4498519897461,200200,0.0,0.0
2023-01-31 00:00:00-05:00,111.01550944532644,113.44394111463646,110.51811731617703,112.78075408935547,630900,0.0,0.0
2023-02-01 00:00:00-05:00,111.9881603783259,115.52050933505616,111.92945337620039,114.57137298583984,190900,0.38,0.0
2023-02-02 00:00:00-05:00,114.57138889039847,115.7945013730372,114.0723643724879,114.7768783569336,271600,0.0,0.0
2023-02-03 00:00:00-05:00,114.0821484321196,114.0821484321196,112.73183488511435,112.93731689453125,284100,0.0,0.0
2023-02-06 00:00:00-05:00,112.09581247400796,113.0155954666978,110.99990844726562,110.99990844726562,180400,0.0,0.0
2023-02-07 00:00:00-05:00,110.24646544851845,110.40302743035079,108.32862596278922,109.77679443359375,189100,0.0,0.0
2023-02-08 00:00:00-05:00,109.3168985454117,109.74743651284261,108.17206709414592,108.18184661865234,138800,0.0,0.0
2023-02-09 00:00:00-05:00,109.08206801886405,109.4049640438675,106.89024505321868,106.90003204345703,180200,0.0,0.0
2023-02-10 00:00:00-05:00,106.65540362822738,106.87067260981264,105.56927919589137,106.86088562011719,217900,0.0,0.0
2023-02-13 00:00:00-05:00,107.04679682086605,108.1622747124339,106.90002184244175,107.43819427490234,184900,0.0,0.0
2023-02-14 00:00:00-05:00,107.43820360568301,108.80808361585296,107.30121560466603,107.39906311035156,122500,0.0,0.0
2023-02-15 00:00:00-05:00,106.4792740360057,108.02528991928148,106.23465155315647,108.0155029296875,155200,0.0,0.0
2023-02-16 00:00:00-05:00,106.38143267257288,109.1309871495159,105.85304718330413,108.3090591430664,372200,0.0,0.0
2023-02-17 00:00:00-05:00,112.52634981894491,118.67126581461193,111.56742633576187,114.18000030517578,590700,0.0,0.0
2023-02-21 00:00:00-05:00,113.99408350673167,113.99408350673167,110.67700304740676,112.60462951660156,463900,0.0,0.0
2023-02-22 00:00:00-05:00,112.14473824567753,113.50483873327579,111.96860974903169,112.25237274169922,257700,0.0,0.0
2023-02-23 00:00:00-05:00,112.34043243199615,113.07429991841427,110.64764894388522,112.09580993652344,196400,0.0,0.0
2023-02-24 00:00:00-05:00,111.3521634037615,112.56548889623957,110.5595814386297,112.3012924194336,215100,0.0,0.0
2023-02-27 00:00:00-05:00,113.34827783428503,114.72795231540253,113.02538180842211,114.18000030517578,215300,0.0,0.0
2023-02-28 00:00:00-05:00,114.14084133695509,115.56943560761974,114.08212687015721,114.20933532714844,261500,0.0,0.0
2023-03-01 00:00:00-05:00,113.68096753774685,115.08020852453151,113.68096753774685,114.93343353271484,194700,0.0,0.0
2023-03-02 00:00:00-05:00,114.89430581022677,116.44032196070161,114.70839776752503,116.02935791015625,205000,0.0,0.0
2023-03-03 00:00:00-05:00,116.41095563455673,117.66342163085938,115.31504415514881,117.66342163085938,225400,0.0,0.0
2023-03-06 00:00:00-05:00,117.54599853680486,117.6047130119629,114.07236358913649,114.31698608398438,265900,0.0,0.0
2023-03-07 00:00:00-05:00,114.19956377353569,114.81600976859379,113.72010577737939,114.1604232788086,247100,0.0,0.0
2023-03-08 00:00:00-05:00,113.90602946069806,114.18978500364545,112.69269643267285,112.84925842285156,281700,0.0,0.0
2023-03-09 00:00:00-05:00,113.46569894579096,113.90602392279584,112.0664579540653,112.10559844970703,189700,0.0,0.0
2023-03-10 00:00:00-05:00,112.17409308545392,112.17409308545392,109.86485608652902,110.13883209228516,201400,0.0,0.0
2023-03-13 00:00:00-04:00,109.05271206509913,110.67700911622507,109.05271206509913,109.56153106689453,245400,0.0,0.0
2023-03-14 00:00:00-04:00,111.42065752794538,112.7807580129058,111.04882655503299,112.60462951660156,261500,0.0,0.0
2023-03-15 00:00:00-04:00,111.0194680262325,111.30323100550942,107.80023521823885,108.98420715332031,256200,0.0,0.0
2023-03-16 00:00:00-04:00,107.84917154248042,110.84334862432897,107.58497505567823,110.25625610351562,209200,0.0,0.0
2023-03-17 00:00:00-04:00,110.49109039168059,110.49109039168059,107.58497386085018,108.37755584716797,393800,0.0,0.0
2023-03-20 00:00:00-04:00,109.3951794877413,111.02925591394136,109.3951794877413,110.35409545898438,146400,0.0,0.0
2023-03-21 00:00:00-04:00,111.67506034275999,111.76312832418068,110.05077083445002,110.58893585205078,141200,0.0,0.0
2023-03-22 00:00:00-04:00,110.3736751112363,111.76312912114271,109.7278681271668,109.83550262451172,176700,0.0,0.0
2023-03-23 00:00:00-04:00,109.73764549343846,111.00967790415113,108.42646512499408,109.31689453125,156900,0.0,0.0
2023-03-24 00:00:00-04:00,108.63196369837206,110.55959032027879,107.65347363367111,110.54002380371094,148800,0.0,0.0
2023-03-27 00:00:00-04:00,111.01947842578275,112.36979198597774,111.01947842578275,111.5282974243164,170100,0.0,0.0
2023-03-28 00:00:00-04:00,111.32280122692488,112.64376866606705,110.70635522986831,112.54591369628906,189800,0.0,0.0
2023-03-29 00:00:00-04:00,113.20151127067999,113.4461337723694,112.68291276154427,113.37763977050781,138700,0.0,0.0
2023-03-30 00:00:00-04:00,113.77882086385497,114.25827889404745,112.57528229302476,113.45591735839844,148000,0.0,0.0
2023-03-31 00:00:00-04:00,114.01365162057634,115.72600912215786,114.01365162057634,115.64773559570312,206300,0.0,0.0
2023-04-03 00:00:00-04:00,115.39331778179478,116.2543862329776,115.11934179574959,116.09783172607422,151100,0.0,0.0
2023-04-04 00:00:00-04:00,115.95106450381833,115.95106450381833,114.2680605165745,115.138916015625,183100,0.0,0.0
2023-04-05 00:00:00-04:00,115.20739724470445,116.6359915843813,114.70837277716838,116.5185775756836,249700,0.0,0.0
2023-04-06 00:00:00-04:00,116.77298416349359,116.77298416349359,115.39331725004219,116.49900817871094,159300,0.0,0.0
2023-04-10 00:00:00-04:00,115.83364820843825,116.65558372370869,115.43247117412322,116.53816223144531,174600,0.0,0.0
2023-04-11 00:00:00-04:00,116.63599480985275,117.40900273805963,116.27395831930913,116.48922729492188,121800,0.0,0.0
2023-04-12 00:00:00-04:00,116.76320485690785,117.09588784896819,115.64772693662151,115.84342193603516,134300,0.0,0.0
2023-04-13 00:00:00-04:00,115.80429591727977,117.41880599273723,115.354191390142,117.20353698730469,110700,0.0,0.0
2023-04-14 00:00:00-04:00,116.61643507221491,117.47750355941214,115.76514610972423,116.63600158691406,233600,0.0,0.0
2023-04-17 00:00:00-04:00,116.92955014017048,117.23287963867188,115.9804136851727,117.23287963867188,122400,0.0,0.0
2023-04-18 00:00:00-04:00,117.15461668690735,117.15461668690735,115.51075310828533,116.03913116455078,261700,0.0,0.0
2023-04-19 00:00:00-04:00,115.8238569206279,116.86105386845279,115.52051996274105,116.15653991699219,252900,0.0,0.0
2023-04-20 00:00:00-04:00,116.44031964875172,117.22311469973202,115.97064112510616,116.46967315673828,296800,0.0,0.0
2023-04-21 00:00:00-04:00,116.7534299567376,118.46578750741529,116.24461842640514,117.99610900878906,361500,0.0,0.0
2023-04-24 00:00:00-04:00,118.26029276247478,118.80824473079451,117.1643813605496,117.81018829345703,229600,0.0,0.0
2023-04-25 00:00:00-04:00,116.86105855385608,117.3698700584857,115.34439609947044,115.53031158447266,167500,0.0,0.0
2023-04-26 00:00:00-04:00,114.49311523060877,115.0508542234253,113.12322775860564,113.26021575927734,247200,0.0,0.0
2023-04-27 00:00:00-04:00,113.26020723587565,114.072355653944,112.16429584768879,114.06256866455078,361900,0.0,0.0
2023-04-28 00:00:00-04:00,114.00386604924881,116.99804290432304,114.00386604924881,115.96084594726562,586700,0.0,0.0
2023-05-01 00:00:00-04:00,116.84149293285557,119.86502340939604,116.84149293285557,119.02352142333984,283100,0.0,0.0
2023-05-02 00:00:00-04:00,118.14288317086096,118.27987117672369,113.24065353544547,117.88848114013672,359200,0.0,0.0
2023-05-03 00:00:00-04:00,118.25165760847847,118.78171490676155,117.53509658795517,117.69215393066406,294300,0.38,0.0
2023-05-04 00:00:00-04:00,117.73141886029768,117.93755100696332,116.20995767298123,116.61241149902344,192500,0.0,0.0
2023-05-05 00:00:00-04:00,116.79891769365565,119.63570067463124,116.79891769365565,119.45901489257812,171100,0.0,0.0
2023-05-08 00:00:00-04:00,119.6160668606866,120.08722393233099,118.438166692669,119.2626953125,200400,0.0,0.0
2023-05-09 00:00:00-04:00,118.64428757283552,118.80133741882362,117.4860159391628,118.35962677001953,185600,0.0,0.0
2023-05-10 00:00:00-04:00,118.8602376605255,119.33140220597461,116.31793367529332,117.41731262207031,227200,0.0,0.0
2023-05-11 00:00:00-04:00,117.27989407350391,117.62344766253574,116.76946517930813,117.08357238769531,203900,0.0,0.0
2023-05-12 00:00:00-04:00,117.47619684018578,118.64428641814759,117.15227170679884,118.56575775146484,168400,0.0,0.0
2023-05-15 00:00:00-04:00,118.36943723677098,118.84060175254713,117.82956949811108,118.35962677001953,148300,0.0,0.0
2023-05-16 00:00:00-04:00,118.35964475431099,118.35964475431099,116.03328317782653,116.1412582397461,180800,0.0,0.0
2023-05-17 00:00:00-04:00,116.63204222599711,116.84799233312319,115.29708473549634,116.77928161621094,168600,0.0,0.0
2023-05-18 00:00:00-04:00,115.99401185542538,116.857812298782,115.61119392763109,116.79891204833984,94000,0.0,0.0
2023-05-19 00:00:00-04:00,117.67252566837792,118.05534360498534,116.41609680065028,116.8970718383789,156900,0.0,0.0
2023-05-22 00:00:00-04:00,116.48479972892893,117.31914626601181,115.71916390692569,115.95474243164062,229600,0.0,0.0
2023-05-23 00:00:00-04:00,115.23819743180502,116.26885823429332,114.7572223906438,115.02224731445312,155400,0.0,0.0
2023-05-24 00:00:00-04:00,115.0320502943602,115.0320502943602,112.91182122430791,113.00016784667969,297800,0.0,0.0
2023-05-25 00:00:00-04:00,112.1854616347367,113.15722965008982,111.35111505634639,111.44927215576172,196800,0.0,0.0
2023-05-26 00:00:00-04:00,110.90939246562569,112.38177136503076,110.87012812963945,112.05785369873047,210200,0.0,0.0
2023-05-30 00:00:00-04:00,112.10693724750945,112.60754820925368,110.92903703165979,111.27259063720703,136100,0.0,0.0
2023-05-31 00:00:00-04:00,111.35111314041339,111.46889866212248,109.6333377190282,110.4186019897461,360800,0.0,0.0
2023-06-01 00:00:00-04:00,110.74252803336906,111.4296352118274,109.97689218054215,110.86032104492188,170700,0.0,0.0
2023-06-02 00:00:00-04:00,111.9106143110087,112.63698580448809,111.56706073226212,112.05785369873047,353000,0.0,0.0
2023-06-05 00:00:00-04:00,111.70448262306778,112.12656487552233,110.80141786948396,110.97810363769531,237400,0.0,0.0
2023-06-06 00:00:00-04:00,110.95846843146386,112.54864024816291,110.95846843146386,112.21489715576172,266900,0.0,0.0
2023-06-07 00:00:00-04:00,112.25417515299031,113.56949679355634,111.95969635849296,113.28484344482422,264100,0.0,0.0
2023-06-08 00:00:00-04:00,113.43206874182783,113.85415099525619,112.67625086373383,113.07869720458984,270500,0.0,0.0
2023-06-09 00:00:00-04:00,112.9412812011952,113.441892151164,112.28362038763048,112.69588470458984,295000,0.0,0.0
2023-06-12 00:00:00-04:00,112.56827265525595,113.46151194068716,112.19527270480974,113.26519775390625,353000,0.0,0.0
2023-06-13 00:00:00-04:00,113.57930920963341,114.24678795421295,112.6468055540605,113.08851623535156,340600,0.0,0.0
2023-06-14 00:00:00-04:00,113.48114700172985,113.8247005704733,112.24434666534736,113.03943634033203,225200,0.0,0.0
2023-06-15 00:00:00-04:00,112.88237959001259,114.25660136106355,112.8332972989762,113.91304779052734,362600,0.0,0.0
2023-06-16 00:00:00-04:00,113.52041136526161,115.05168297999425,113.23575055425765,114.99279022216797,975300,0.0,0.0
2023-06-20 00:00:00-04:00,114.72775359537623,114.79646430660368,113.57929992675781,113.57929992675781,297000,0.0,0.0
2023-06-21 00:00:00-04:00,113.01980117361711,113.13759417892268,111.33147220876805,111.52779388427734,317800,0.0,0.0
2023-06-22 00:00:00-04:00,111.85171029681588,111.95968534491618,110.28117435477432,111.94987487792969,266200,0.0,0.0
2023-06-23 00:00:00-04:00,110.82106057375844,111.63577874871399,110.0063423988029,110.75234985351562,366000,0.0,0.0
2023-06-26 00:00:00-04:00,110.97809961220085,112.2639822354489,110.97809961220085,111.51797485351562,142300,0.0,0.0
2023-06-27 00:00:00-04:00,111.73392545883496,112.7056934087205,111.14497541311361,112.60753631591797,218300,0.0,0.0
2023-06-28 00:00:00-04:00,112.69586544014706,112.69586544014706,110.40877617431367,111.42961883544922,204800,0.0,0.0
2023-06-29 00:00:00-04:00,111.34130323371589,113.2357645635369,110.4775102268038,112.66644287109375,225900,0.0,0.0
2023-06-30 00:00:00-04:00,113.09834042799736,114.138819194397,112.72533295407531,113.72655487060547,279800,0.0,0.0
2023-07-03 00:00:00-04:00,113.28482316970808,114.86516945135428,113.28482316970808,114.39401245117188,85700,0.0,0.0
2023-07-05 00:00:00-04:00,113.49097172501563,113.49097172501563,110.68363527204593,110.86032104492188,384200,0.0,0.0
2023-07-06 00:00:00-04:00,110.18302906767403,110.89959014648484,109.57444304853206,110.39897918701172,277700,0.0,0.0
2023-07-07 00:00:00-04:00,110.57565663909402,113.20630723406722,110.51675639077017,111.69466400146484,333400,0.0,0.0
2023-07-10 00:00:00-04:00,111.22350117784158,113.17686260297434,110.929029887298,112.36214447021484,248000,0.0,0.0
2023-07-11 00:00:00-04:00,112.20508796771925,113.4320704098084,111.28240226372463,113.38299560546875,226700,0.0,0.0
2023-07-12 00:00:00-04:00,114.43329570919582,115.38543531104503,113.63820597041392,114.71795654296875,199400,0.0,0.0
2023-07-13 00:00:00-04:00,114.69831222740211,115.20874109502009,114.41365141448175,114.8553695678711,190200,0.0,0.0
2023-07-14 00:00:00-04:00,115.52284962915222,116.65166744903586,114.55107417374965,116.17069244384766,271600,0.0,0.0
2023-07-17 00:00:00-04:00,116.21977744333584,117.33878482207749,115.00261296782688,117.0639419555664,234200,0.0,0.0
2023-07-18 00:00:00-04:00,116.81854971788495,118.15350725141096,116.5142529712606,116.88726043701172,189100,0.0,0.0
2023-07-19 00:00:00-04:00,116.56333073191328,117.21118104897205,116.13143052054077,116.91670227050781,247200,0.0,0.0
2023-07-20 00:00:00-04:00,117.57436296115227,118.00626317218011,116.67130569164537,117.13265228271484,175800,0.0,0.0
2023-07-21 00:00:00-04:00,117.44675876945266,117.83939464173179,116.68112293740685,117.63325500488281,184300,0.0,0.0
2023-07-24 00:00:00-04:00,117.80993713596214,118.27128370997957,116.52406199562894,117.52528381347656,163400,0.0,0.0
2023-07-25 00:00:00-04:00,117.47619584899162,118.88968188173146,117.10319591875451,118.3399887084961,250700,0.0,0.0
2023-07-26 00:00:00-04:00,118.34985607308383,118.58623849459941,117.03003856449325,118.14301300048828,306900,0.41,0.0
2023-07-27 00:00:00-04:00,118.25136138839413,118.96051619666319,116.95124674472149,117.34522247314453,407800,0.0,0.0
2023-07-28 00:00:00-04:00,120.64475358705498,125.07696356835932,120.04394229954343,121.91532135009766,513000,0.0,0.0
2023-07-31 00:00:00-04:00,121.6592367554332,122.06306394094794,119.00976521560548,119.6302719116211,746500,0.0,0.0
2023-08-01 00:00:00-04:00,119.41358520927224,120.65460611911824,118.93096888884513,120.59551239013672,365300,0.0,0.0
2023-08-02 00:00:00-04:00,119.61057747961267,120.48716953175558,118.17257245571012,120.39852142333984,329200,0.0,0.0
2023-08-03 00:00:00-04:00,119.68936222304521,120.88114082631289,118.90141830822384,118.99005889892578,195900,0.0,0.0
2023-08-04 00:00:00-04:00,118.80292117376706,120.29016834905809,118.66503080671306,118.82261657714844,116500,0.0,0.0
2023-08-07 00:00:00-04:00,118.91126810573093,119.82725843582493,118.69458108998327,119.46282958984375,140300,0.0,0.0
2023-08-08 00:00:00-04:00,118.27105347378337,119.57116799836159,117.90662464334399,119.2953872680664,270100,0.0,0.0
2023-08-09 00:00:00-04:00,119.29540183030906,121.53120232194752,118.70443446243924,119.99470520019531,287500,0.0,0.0
2023-08-10 00:00:00-04:00,119.96514930096563,121.70848186440932,119.96514930096563,120.388671875,216000,0.0,0.0
2023-08-11 00:00:00-04:00,119.67951949211201,121.36375836268823,119.67951949211201,120.76294708251953,226500,0.0,0.0
2023-08-14 00:00:00-04:00,120.1916774853484,121.13721466064453,119.74845951752447,121.13721466064453,145700,0.0,0.0
2023-08-15 00:00:00-04:00,120.78262897293594,121.07811260746895,120.1424269555494,120.25076293945312,249000,0.0,0.0
2023-08-16 00:00:00-04:00,119.89620081716167,121.3046588721182,119.65981088853212,119.70906066894531,291100,0.0,0.0
2023-08-17 00:00:00-04:00,120.12274286789547,120.81220228505703,119.78786837643065,119.80756378173828,186600,0.0,0.0
2023-08-18 00:00:00-04:00,119.5514706614991,121.56074002317912,119.5514706614991,121.43270111083984,443100,0.0,0.0
2023-08-21 00:00:00-04:00,121.29481465792134,122.58507782562879,121.20616655077505,121.91532135009766,358800,0.0,0.0
2023-08-22 00:00:00-04:00,122.00395514990728,123.81623274501855,120.91067621490348,121.09780883789062,429600,0.0,0.0
2023-08-23 00:00:00-04:00,121.20616606012085,121.69863383382778,120.46746439956047,121.53119659423828,305000,0.0,0.0
2023-08-24 00:00:00-04:00,121.62969008028209,123.5700143338806,120.74324657426476,123.22528839111328,278400,0.0,0.0
2023-08-25 00:00:00-04:00,123.67835859597204,125.75657323927061,123.09725021956615,125.61868286132812,493000,0.0,0.0
2023-08-28 00:00:00-04:00,125.70731870235188,127.62794749015404,125.70731870235188,127.46051025390625,331900,0.0,0.0
2023-08-29 00:00:00-04:00,127.84462418454724,129.97208835964057,127.4506409879065,129.83419799804688,472400,0.0,0.0
2023-08-30 00:00:00-04:00,130.3759061188692,131.25249810459778,129.71600114344866,130.88807678222656,298900,0.0,0.0
2023-08-31 00:00:00-04:00,131.2722040887197,131.71542206418476,130.24787776700208,130.56304931640625,305800,0.0,0.0
2023-09-01 00:00:00-04:00,131.09492494428994,131.7745178351225,130.52366053389966,130.55320739746094,252000,0.0,0.0
2023-09-05 00:00:00-04:00,129.6963019473409,129.99178560886958,125.44138831966775,125.64822387695312,325300,0.0,0.0
2023-09-06 00:00:00-04:00,125.8649151442291,126.08159465361133,124.29886370837676,124.50570678710938,291100,0.0,0.0
2023-09-07 00:00:00-04:00,124.3875175058321,125.25425812639656,123.25484006585269,123.47152709960938,328600,0.0,0.0
2023-09-08 00:00:00-04:00,123.61925570619994,124.76177696941134,123.23513146547303,123.4222640991211,238800,0.0,0.0
2023-09-11 00:00:00-04:00,125.07696150990851,126.00280331761621,124.50570461048845,125.09666442871094,333500,0.0,0.0
2023-09-12 00:00:00-04:00,124.21022261093232,125.37244685863264,123.53061467790278,124.62389373779297,258000,0.0,0.0
2023-09-13 00:00:00-04:00,123.88518867479367,124.68298404247041,123.2252836789509,123.48136901855469,279300,0.0,0.0
2023-09-14 00:00:00-04:00,124.11172409736754,125.38229179040027,124.11172409736754,124.85042572021484,217900,0.0,0.0
2023-09-15 00:00:00-04:00,124.58449760838674,125.28380095833782,123.28438296216771,124.0329360961914,589200,0.0,0.0
2023-09-18 00:00:00-04:00,124.45644630402369,124.45644630402369,123.03813682585913,123.7472915649414,175100,0.0,0.0
2023-09-19 00:00:00-04:00,123.79654439534015,123.79654439534015,122.19109473410884,123.4222640991211,218600,0.0,0.0
2023-09-20 00:00:00-04:00,123.94428884123076,124.20037419414,122.68357251069614,122.75251770019531,206200,0.0,0.0
2023-09-21 00:00:00-04:00,122.45703690729975,122.47673231164256,120.34927546291505,120.37882232666016,335700,0.0,0.0
2023-09-22 00:00:00-04:00,120.48716037267445,121.04857330175713,120.27047336242124,120.8318862915039,341200,0.0,0.0
2023-09-25 00:00:00-04:00,120.15228116938907,122.26004256679889,119.64011800881072,122.17140197753906,258800,0.0,0.0
2023-09-26 00:00:00-04:00,121.66908429375634,122.34869221115255,121.37360814470796,121.73802947998047,547000,0.0,0.0
2023-09-27 00:00:00-04:00,122.17139611432721,122.57521574790026,121.01902342248404,121.65922546386719,362400,0.0,0.0
2023-09-28 00:00:00-04:00,121.99411013583865,123.74729410203551,121.40315034597452,123.5798568725586,219300,0.0,0.0
2023-09-29 00:00:00-04:00,124.58448737054094,124.91936934289888,122.91010005213542,123.15633392333984,330900,0.0,0.0
2023-10-02 00:00:00-04:00,122.65402041708958,123.58971367978923,122.12215432885712,123.16619110107422,244100,0.0,0.0
2023-10-03 00:00:00-04:00,122.15169752451257,123.42226522250525,120.6447474103352,121.01902770996094,236300,0.0,0.0
2023-10-04 00:00:00-04:00,121.68879452704238,122.7820736275,120.48717191108265,122.35855102539062,208200,0.0,0.0
2023-10-05 00:00:00-04:00,122.09260826611496,123.04799693932927,120.95008695070266,121.88577270507812,466700,0.0,0.0
2023-10-06 00:00:00-04:00,121.74788423457618,124.78148753947032,121.53119721073205,124.50570678710938,491700,0.0,0.0
2023-10-09 00:00:00-04:00,123.92458710028268,125.30349833422895,123.79654818760531,125.02771759033203,275700,0.0,0.0
2023-10-10 00:00:00-04:00,125.3231951536615,126.67255953949541,124.60419642244754,124.63374328613281,322000,0.0,0.0
2023-10-11 00:00:00-04:00,125.60882568359375,125.77626291855002,124.74208513105981,125.60882568359375,212900,0.0,0.0
2023-10-12 00:00:00-04:00,125.30350378305916,125.48079248533969,123.17603935569285,123.5306167602539,189300,0.0,0.0
2023-10-13 00:00:00-04:00,124.10187352296693,124.761778507277,123.51091372336892,124.07232666015625,324900,0.0,0.0
2023-10-16 00:00:00-04:00,125.44138756500169,125.51033275034871,124.26931189964081,124.80117797851562,275200,0.0,0.0
2023-10-17 00:00:00-04:00,124.11173667090924,126.40663090072249,124.11173667090924,125.5595932006836,314400,0.0,0.0
2023-10-18 00:00:00-04:00,124.95878055658882,125.74672451706186,124.3776646530701,124.87013244628906,287300,0.0,0.0
2023-10-19 00:00:00-04:00,124.18067105542181,125.54973081483128,123.50106314806689,123.83594512939453,443900,0.0,0.0
2023-10-20 00:00:00-04:00,124.03293226088714,124.57464981108677,120.09319011968779,120.37882232666016,446500,0.0,0.0
2023-10-23 00:00:00-04:00,119.88635712970668,121.30466673557872,119.38403789188335,119.66967010498047,379000,0.0,0.0
2023-10-24 00:00:00-04:00,120.2901701673284,121.90546378962974,119.88635051898383,121.48194122314453,312100,0.0,0.0
2023-10-25 00:00:00-04:00,120.98783390708984,122.32193004982163,120.45419394209233,120.92854309082031,431300,0.41,0.0
2023-10-26 00:00:00-04:00,119.8316297385119,123.91297802297464,119.8316297385119,121.97606658935547,576000,0.0,0.0
2023-10-27 00:00:00-04:00,122.01559371378868,122.38123049558588,118.94222716992682,119.74268341064453,364000,0.0,0.0
2023-10-30 00:00:00-04:00,120.48384087248407,120.87913057816436,119.42644524501559,120.73089599609375,283100,0.0,0.0
2023-10-31 00:00:00-04:00,121.0668978964798,121.44241897947953,120.39490764196373,120.82971954345703,422900,0.0,0.0
2023-11-01 00:00:00-04:00,120.67160832753754,121.97605911265033,120.17749806742626,121.48194885253906,360500,0.0,0.0
2023-11-02 00:00:00-04:00,122.26264837035367,122.82593378558079,121.53136727012583,122.12429809570312,384300,0.0,0.0
2023-11-03 00:00:00-04:00,122.96427493970207,124.48613538750294,122.96427493970207,123.8734359741211,278000,0.0,0.0
2023-11-06 00:00:00-05:00,123.7943839445495,124.24897202852465,123.28051258024303,123.71533203125,173500,0.0,0.0
2023-11-07 00:00:00-05:00,123.15204561917379,123.51768239133312,122.70734185531134,123.08287048339844,205000,0.0,0.0
2023-11-08 00:00:00-05:00,123.40897795368349,124.01179308445136,122.94452063446629,123.64615631103516,175800,0.0,0.0
2023-11-09 00:00:00-05:00,124.20944098820135,124.20944098820135,122.60852101331227,122.92475128173828,118600,0.0,0.0
2023-11-10 00:00:00-05:00,122.77651268056438,124.3082574697725,122.43063701383082,124.23908233642578,195600,0.0,0.0
2023-11-13 00:00:00-05:00,123.91297299029823,124.00191675951038,122.90499135621492,123.06310272216797,183100,0.0,0.0
2023-11-14 00:00:00-05:00,124.46636609651023,126.35387082706988,123.8339055942185,126.34398651123047,267400,0.0,0.0
2023-11-15 00:00:00-05:00,126.3143475614149,127.28280699604653,125.8498827070265,126.20564270019531,388600,0.0,0.0
2023-11-16 00:00:00-05:00,126.14635167264116,127.1049192498191,125.34588791957243,126.04753112792969,217000,0.0,0.0
2023-11-17 00:00:00-05:00,127.04562613275004,127.55950501919288,126.10681966568688,126.42304992675781,162700,0.0,0.0
2023-11-20 00:00:00-05:00,125.94870215932512,126.14635078688451,124.940720547107,125.82023620605469,213900,0.0,0.0
2023-11-21 00:00:00-05:00,125.95858603909745,126.78869519292185,125.70164659392273,126.40328979492188,160600,0.0,0.0
2023-11-22 00:00:00-05:00,126.93690714366917,127.67807244238158,125.85975052851165,127.05550384521484,174800,0.0,0.0
2023-11-24 00:00:00-05:00,127.45080302762,127.45080302762,126.59105599136227,127.01598358154297,65900,0.0,0.0
2023-11-27 00:00:00-05:00,126.31433827436793,126.7886874102254,125.35576322655868,125.50399780273438,367500,0.0,0.0
2023-11-28 00:00:00-05:00,125.504004627321,125.51388894347652,124.01178954785065,124.13037872314453,218000,0.0,0.0
2023-11-29 00:00:00-05:00,124.16001994636261,124.9110696188559,123.44849999763464,123.89320373535156,331800,0.0,0.0
2023-11-30 00:00:00-05:00,123.97226185014588,125.63247263378987,123.33980131728381,125.39530181884766,301000,0.0,0.0
2023-12-01 00:00:00-05:00,124.93083848043351,127.02586119361783,124.93083848043351,126.59105682373047,218300,0.0,0.0
2023-12-04 00:00:00-05:00,125.94869726613702,127.36186039483064,125.39529620951916,126.90727233886719,192000,0.0,0.0
2023-12-05 00:00:00-05:00,126.73928570844643,127.17410516368075,124.39720028755862,124.50590515136719,178000,0.0,0.0
2023-12-06 00:00:00-05:00,124.90119267287656,125.80047697767145,124.39719808953521,124.88143157958984,179500,0.0,0.0
2023-12-07 00:00:00-05:00,124.75296012128835,125.6127147140196,124.50590498378766,125.00001525878906,254000,0.0,0.0
2023-12-08 00:00:00-05:00,124.87154541234229,125.99811620109602,124.14026433918309,125.82023620605469,265800,0.0,0.0
2023-12-11 00:00:00-05:00,125.76094531163876,126.17599611997662,124.8517767044628,126.06729125976562,338000,0.0,0.0
2023-12-12 00:00:00-05:00,126.1463510868967,126.5910548453198,125.1877759746455,125.97835540771484,210300,0.0,0.0
2023-12-13 00:00:00-05:00,125.68187706386493,127.47056120426309,125.68187706386493,127.07526397705078,425000,0.0,0.0
2023-12-14 00:00:00-05:00,127.55951044773897,128.47854832161434,125.38542071327007,125.89929962158203,412900,0.0,0.0
2023-12-15 00:00:00-05:00,125.66213330765346,127.06540472998513,124.48614839791895,124.49603271484375,713000,0.0,0.0
2023-12-18 00:00:00-05:00,125.21742212064312,125.71153238433733,124.39719727342491,125.55342102050781,240500,0.0,0.0
2023-12-19 00:00:00-05:00,126.20564229345229,126.62070064382776,124.5454315105232,124.74308013916016,659100,0.0,0.0
2023-12-20 00:00:00-05:00,124.53553939309275,125.44470794882234,123.98213834662378,124.0908432006836,346400,0.0,0.0
2023-12-21 00:00:00-05:00,124.75295640698745,124.75295640698745,123.3793304865428,124.42684936523438,421900,0.0,0.0
2023-12-22 00:00:00-05:00,124.91107389434772,125.54353441719309,124.63437335804339,124.78260040283203,312200,0.0,0.0
2023-12-26 00:00:00-05:00,124.6541318886724,125.3755361630872,124.11060760387191,124.34778594970703,274700,0.0,0.0
2023-12-27 00:00:00-05:00,124.63437705637008,124.98025273701381,123.5572127486232,123.80426788330078,283100,0.0,0.0
2023-12-28 00:00:00-05:00,123.50780990540973,124.31815046958467,122.9346401664867,123.72521209716797,343600,0.0,0.0
2023-12-29 00:00:00-05:00,123.71532421021986,123.88331988220698,122.1045200037436,122.163818359375,313500,0.0,0.0
2024-01-02 00:00:00-05:00,121.16571704448889,122.6381634898007,120.84948678362613,121.43253326416016,313100,0.0,0.0
2024-01-03 00:00:00-05:00,123.67579826718928,125.76094414531796,121.69935724826344,123.8833236694336,531700,0.0,0.0
2024-01-04 00:00:00-05:00,123.70544279171902,124.43672385242652,122.66780824839185,122.75675201416016,353300,0.0,0.0
2024-01-05 00:00:00-05:00,122.32193344846323,122.90498746956777,121.54123834128632,122.73698425292969,423000,0.0,0.0
2024-01-08 00:00:00-05:00,122.60852284211245,123.68568715781811,120.92855092970204,122.88522338867188,352400,0.0,0.0
2024-01-09 00:00:00-05:00,122.25276515945477,123.17181058624556,121.52148405261278,123.16192626953125,250300,0.0,0.0
2024-01-10 00:00:00-05:00,122.99392771839973,123.94261853371319,122.76664121593656,123.71533203125,279600,0.0,0.0
2024-01-11 00:00:00-05:00,123.90308518645588,125.47435972243426,123.46827328767989,125.34588623046875,323100,0.0,0.0
2024-01-12 00:00:00-05:00,126.38352064693153,126.46258009735882,124.43672503242341,124.94071960449219,231700,0.0,0.0
2024-01-16 00:00:00-05:00,124.39719304252597,125.32612271932483,124.03155628512354,125.31623840332031,257500,0.0,0.0
2024-01-17 00:00:00-05:00,124.45649695012426,125.77082453543308,124.40708290742177,125.19766235351562,336900,0.0,0.0
2024-01-18 00:00:00-05:00,125.82024377996669,128.47855200982383,124.82213888440117,127.61880493164062,444200,0.0,0.0
2024-01-19 00:00:00-05:00,128.18209008005715,129.91147598730586,127.02585880393394,129.25924682617188,418000,0.0,0.0
2024-01-22 00:00:00-05:00,129.35806092328045,130.25734522161773,129.02206956314845,129.6446533203125,266200,0.0,0.0
2024-01-23 00:00:00-05:00,130.24746945845396,130.296883500987,128.79478406646476,130.27711486816406,217800,0.0,0.0
2024-01-24 00:00:00-05:00,130.5636832420236,130.73167891188575,129.00229309506915,129.23947143554688,294400,0.0,0.0
2024-01-25 00:00:00-05:00,130.47474445843625,130.82062764663073,128.84418675191344,129.7039337158203,332300,0.0,0.0
2024-01-26 00:00:00-05:00,130.12886723227166,131.02815149954128,129.85216670065762,130.1486358642578,219900,0.0,0.0
2024-01-29 00:00:00-05:00,129.50629241175295,131.02814526319688,128.95289137486424,130.69215393066406,187800,0.0,0.0
2024-01-30 00:00:00-05:00,130.47474422630816,131.5222554859971,130.0794620796869,130.69215393066406,228400,0.0,0.0
2024-01-31 00:00:00-05:00,131.21753326555097,131.61405979403008,128.03548917643582,128.7492218017578,537500,0.41,0.0
2024-02-01 00:00:00-05:00,129.3241702188752,129.96850501102756,128.48156460519286,129.3638153076172,298800,0.0,0.0
2024-02-02 00:00:00-05:00,128.82853516166915,129.57200543236544,127.56958793469315,128.96731567382812,344800,0.0,0.0
2024-02-05 00:00:00-05:00,128.00577179741288,130.30556552210692,126.9351726903174,129.5125274658203,319500,0.0,0.0
2024-02-06 00:00:00-05:00,129.34400751468976,130.2559959724917,128.17428812075116,129.9883575439453,369700,0.0,0.0
2024-02-07 00:00:00-05:00,130.26590766193826,131.267108845258,128.24366006025903,130.6525115966797,393000,0.0,0.0
2024-02-08 00:00:00-05:00,130.49389459022223,133.66603122338134,130.39475917552264,130.96971130371094,620700,0.0,0.0
2024-02-09 00:00:00-05:00,130.9598295245484,137.9980218237225,130.36504717145576,137.7501983642578,650900,0.0,0.0
2024-02-12 00:00:00-05:00,137.94844995595852,139.24704242432952,136.31280609713986,136.4119415283203,491300,0.0,0.0
2024-02-13 00:00:00-05:00,135.49994444056586,136.13437183240478,133.80482548099658,134.74655151367188,275900,0.0,0.0
2024-02-14 00:00:00-05:00,135.07368805267203,136.26325271615664,133.99318143841845,135.97576904296875,335000,0.0,0.0
2024-02-15 00:00:00-05:00,135.97576415206808,136.61019155766678,133.39840943442317,133.8643035888672,471400,0.0,0.0
2024-02-16 00:00:00-05:00,134.19142649181865,136.79853382457387,133.8642977479947,136.30288696289062,453900,0.0,0.0
2024-02-20 00:00:00-05:00,135.94602900109788,138.91991035459364,135.75768076189232,138.4738311767578,373000,0.0,0.0
2024-02-21 00:00:00-05:00,137.86912431703115,138.8901555787489,137.77991151768282,138.78111267089844,276300,0.0,0.0
2024-02-22 00:00:00-05:00,139.24703328340902,141.180053056989,138.8505218366026,140.2383270263672,295700,0.0,0.0
2024-02-23 00:00:00-05:00,140.73397752354722,140.81328284014006,139.37590990100838,140.12928771972656,190300,0.0,0.0
2024-02-26 00:00:00-05:00,140.26806091989897,140.82318298112742,139.57415834336345,140.6844024658203,199200,0.0,0.0
2024-02-27 00:00:00-05:00,140.68439280321402,140.9421237065279,138.58285510834838,139.08840942382812,244600,0.0,0.0
2024-02-28 00:00:00-05:00,138.43416809390393,140.01033667439933,138.11696195491015,139.18756103515625,189600,0.0,0.0
2024-02-29 00:00:00-05:00,139.40565497538333,140.396948797008,138.6126168928949,139.2371368408203,250600,0.0,0.0
2024-03-01 00:00:00-05:00,138.6621693304686,139.5642351130347,138.3449480820494,139.06858825683594,151400,0.0,0.0
2024-03-04 00:00:00-05:00,139.46512794883685,140.88267083058346,139.33625491378967,140.7240753173828,260300,0.0,0.0
2024-03-05 00:00:00-05:00,141.03136662496232,141.96318517392672,140.50598214538743,141.27919006347656,190200,0.0,0.0
2024-03-06 00:00:00-05:00,141.68560621173435,142.38943141864434,141.2395270563974,141.82440185546875,184000,0.0,0.0
2024-03-07 00:00:00-05:00,143.2419369981293,143.87636434934632,142.58767953801575,143.390625,250100,0.0,0.0
2024-03-08 00:00:00-05:00,143.45012922799398,143.8069955930077,141.72527260943724,141.84422302246094,185200,0.0,0.0
2024-03-11 00:00:00-04:00,141.54682126117743,142.13169604193249,140.7438757815281,141.4972686767578,226700,0.0,0.0
2024-03-12 00:00:00-04:00,141.5567547257704,141.60632243992973,140.24823967648902,141.17015075683594,242200,0.0,0.0
2024-03-13 00:00:00-04:00,141.75499169716946,141.75499169716946,139.70300658487778,139.93101501464844,336800,0.0,0.0
2024-03-14 00:00:00-04:00,140.12928235811054,140.3870132827191,139.13798862754268,139.70301818847656,235200,0.0,0.0
2024-03-15 00:00:00-04:00,138.82076653015324,141.1701429429702,138.5233905135426,139.7724151611328,599500,0.0,0.0
2024-03-18 00:00:00-04:00,139.70302038648921,140.06980935821068,137.72043289416052,138.0475616455078,299700,0.0,0.0
2024-03-19 00:00:00-04:00,137.67087488880983,139.09834024725149,137.67087488880983,138.29537963867188,253000,0.0,0.0
2024-03-20 00:00:00-04:00,138.41435230223198,138.85052397600484,137.92861291535908,138.7513885498047,220000,0.0,0.0
2024-03-21 00:00:00-04:00,139.08843342098686,140.36721091891917,138.0872321084364,139.9112091064453,255800,0.0,0.0
2024-03-22 00:00:00-04:00,140.77361081986902,141.20978246160044,139.8219773524016,140.35726928710938,276000,0.0,0.0
2024-03-25 00:00:00-04:00,139.9706607801355,142.7958537415966,139.9409231806204,141.71534729003906,316300,0.0,0.0
2024-03-26 00:00:00-04:00,141.58647326162372,143.05358362231945,141.378294940567,141.9532470703125,314200,0.0,0.0
2024-03-27 00:00:00-04:00,142.41915705286345,143.8862674213768,142.41915705286345,143.40054321289062,218200,0.0,0.0
2024-03-28 00:00:00-04:00,143.55916383297742,144.08454829465626,142.39933686940833,142.6372528076172,247800,0.0,0.0
2024-04-01 00:00:00-04:00,142.53811857132533,142.53811857132533,140.88265985977688,141.05117797851562,204400,0.0,0.0
2024-04-02 00:00:00-04:00,140.60509657020089,140.60509657020089,139.16772371206562,139.4056396484375,202600,0.0,0.0
2024-04-03 00:00:00-04:00,139.44529455067843,139.96077155277405,138.65225649959498,139.65347290039062,258700,0.0,0.0
2024-04-04 00:00:00-04:00,140.59520497929628,141.50719348295237,139.7426916849742,140.51589965820312,403600,0.0,0.0
2024-04-05 00:00:00-04:00,140.14911948491763,141.51709461595203,139.72285529394162,140.49606323242188,288300,0.0,0.0
2024-04-08 00:00:00-04:00,140.4365711471719,141.14039630193804,139.16771647109113,139.2866668701172,312500,0.0,0.0
2024-04-09 00:00:00-04:00,139.19745233021874,139.8715398767991,138.1466834827859,139.08840942382812,242600,0.0,0.0
2024-04-10 00:00:00-04:00,137.7700139920935,138.99922380210384,137.24462946565654,138.1863555908203,200700,0.0,0.0
2024-04-11 00:00:00-04:00,138.04755907083242,138.8207669683444,137.24461357156548,137.918701171875,265300,0.0,0.0
2024-04-12 00:00:00-04:00,136.967049267021,137.74025714606825,134.776298651701,136.0054931640625,299200,0.0,0.0
2024-04-15 00:00:00-04:00,137.40322972923067,138.59277922513755,136.63002180059405,136.99679565429688,319600,0.0,0.0
2024-04-16 00:00:00-04:00,136.5903543367824,138.17643033118634,136.1641052997771,137.38339233398438,281700,0.0,0.0
2024-04-17 00:00:00-04:00,137.67086969395015,138.2656368202302,137.14548525906264,137.19503784179688,565400,0.0,0.0
2024-04-18 00:00:00-04:00,137.1851472645947,138.22600877134346,137.01662913507428,137.8988800048828,246600,0.0,0.0
2024-04-19 00:00:00-04:00,137.84930054424208,138.7018137377263,137.56183202448253,138.12686157226562,276600,0.0,0.0
2024-04-22 00:00:00-04:00,138.33502731615243,139.92108802823105,138.03763620578138,139.09832763671875,298800,0.0,0.0
2024-04-23 00:00:00-04:00,138.55312824028502,139.93102591361165,138.30530480892452,138.9298095703125,417200,0.0,0.0
2024-04-24 00:00:00-04:00,139.13860773601874,140.08309687938592,138.83040745274005,139.19825744628906,559200,0.41,0.0
2024-04-25 00:00:00-04:00,139.0292386706214,140.4310674806865,138.11457442322126,139.3672637939453,694400,0.0,0.0
2024-04-26 00:00:00-04:00,141.17671738557638,147.6489684748245,141.07729109393654,142.49900817871094,489500,0.0,0.0
2024-04-29 00:00:00-04:00,144.05989608090238,147.16181733326363,143.53297011620526,145.5313262939453,676700,0.0,0.0
2024-04-30 00:00:00-04:00,144.89503861467492,145.25295202466614,143.2247709779419,143.5429229736328,585100,0.0,0.0
2024-05-01 00:00:00-04:00,144.1493863720236,146.35651652986462,143.74175981802546,144.53712463378906,359600,0.0,0.0
2024-05-02 00:00:00-04:00,144.914913867979,145.8792912599076,144.44763759888693,145.07398986816406,356500,0.0,0.0
2024-05-03 00:00:00-04:00,146.25708021006977,146.27696850093866,144.00023706156148,145.9588165283203,303300,0.0,0.0
2024-05-06 00:00:00-04:00,146.9033104690389,148.21566464459445,146.30679825586762,148.17588806152344,260200,0.0,0.0
2024-05-07 00:00:00-04:00,147.46008217334202,149.50813634180696,147.46008217334202,148.85195922851562,392900,0.0,0.0
2024-05-08 00:00:00-04:00,148.851952516239,149.99527896212328,148.61333853025974,149.91574096679688,223500,0.0,0.0
2024-05-09 00:00:00-04:00,150.12453415300365,150.8502975207552,147.76827976285352,148.21566772460938,299100,0.0,0.0
2024-05-10 00:00:00-04:00,148.08642917571808,148.13614232465676,147.23141459307158,147.6291046142578,186300,0.0,0.0
2024-05-13 00:00:00-04:00,147.66885717155736,148.6133462634333,146.00854125481663,147.01268005371094,167500,0.0,0.0
2024-05-14 00:00:00-04:00,147.4401857000379,147.4501222604799,146.61499607371425,147.04249572753906,137600,0.0,0.0
2024-05-15 00:00:00-04:00,147.102167082445,147.47995361006247,145.91906401390577,146.4261016845703,211100,0.0,0.0
2024-05-16 00:00:00-04:00,146.51557301812144,147.042498969268,145.58102052504745,146.68458557128906,235500,0.0,0.0
2024-05-17 00:00:00-04:00,146.99279178758786,147.31092858235036,146.27696503647144,146.81382751464844,169500,0.0,0.0
2024-05-20 00:00:00-04:00,146.73430448574354,147.54955760165925,146.1874902214491,147.31094360351562,163400,0.0,0.0
2024-05-21 00:00:00-04:00,147.08227500823682,147.81797492279415,146.2371970752046,147.72850036621094,280400,0.0,0.0
2024-05-22 00:00:00-04:00,147.21152602409944,147.96711422959115,146.61499864007018,147.92733764648438,283300,0.0,0.0
2024-05-23 00:00:00-04:00,147.7981084397933,148.0864204140624,146.7044799091405,146.86355590820312,171700,0.0,0.0
2024-05-24 00:00:00-04:00,147.61915308465808,147.96712995738272,146.50565136445627,147.23141479492188,162300,0.0,0.0
2024-05-28 00:00:00-04:00,146.76413330685176,146.92320930991465,144.9745813685235,145.8594207763672,318400,0.0,0.0
2024-05-29 00:00:00-04:00,144.8055608458342,145.84947630873282,143.67217081562745,144.00025939941406,229700,0.0,0.0
2024-05-30 00:00:00-04:00,144.28858574012926,146.1278509067867,144.15933458565246,145.292724609375,328100,0.0,0.0
2024-05-31 00:00:00-04:00,145.24299539146205,146.97291267642265,145.07398283832615,146.83372497558594,358900,0.0,0.0
2024-06-03 00:00:00-04:00,147.6390352585539,147.6390352585539,145.43190503298203,147.30101013183594,266200,0.0,0.0
2024-06-04 00:00:00-04:00,146.79394812461462,147.52966321073654,145.84945907277913,147.33082580566406,287900,0.0,0.0
2024-06-05 00:00:00-04:00,146.86355577498975,147.34076860142255,146.2272669496386,147.06239318847656,229200,0.0,0.0
2024-06-06 00:00:00-04:00,147.15185656875352,147.15185656875352,144.55698831854846,145.11375427246094,197600,0.0,0.0
2024-06-07 00:00:00-04:00,144.92485667565106,145.48160747169428,144.60670469487127,144.7061309814453,179100,0.0,0.0
2024-06-10 00:00:00-04:00,143.99030717125453,144.96462108446894,143.15518095992786,144.7458953857422,125800,0.0,0.0
2024-06-11 00:00:00-04:00,144.069842198694,144.8950318322786,143.51309140261802,144.6564178466797,147700,0.0,0.0
2024-06-12 00:00:00-04:00,145.39213888233263,145.4617251495329,143.234721873972,144.98451232910156,221300,0.0,0.0
2024-06-13 00:00:00-04:00,145.04416203536522,145.68045085271436,144.17921095389806,144.98451232910156,232400,0.0,0.0
2024-06-14 00:00:00-04:00,144.2487917043436,144.53711883402036,142.84696297947195,143.9107666015625,141500,0.0,0.0
2024-06-17 00:00:00-04:00,144.03007123818756,145.82957483514926,143.7318227074485,145.4816131591797,303800,0.0,0.0
2024-06-18 00:00:00-04:00,145.63073417824452,146.83372551658982,145.62079761754873,145.8395233154297,219900,0.0,0.0
2024-06-20 00:00:00-04:00,145.8097081220493,146.67465923985355,144.82544241638323,144.96463012695312,199900,0.0,0.0
2024-06-21 00:00:00-04:00,145.02426713243977,146.28690814864567,144.46751633892825,145.99859619140625,444100,0.0,0.0
2024-06-24 00:00:00-04:00,146.3664553693474,147.37059417305838,145.81964110185237,145.86935424804688,182900,0.0,0.0
2024-06-25 00:00:00-04:00,145.93892924098893,145.94888097165233,143.66221295627713,144.02012634277344,194500,0.0,0.0
2024-06-26 00:00:00-04:00,143.4136783501354,143.9505409043724,142.13116408870536,142.87681579589844,192400,0.0,0.0
2024-06-27 00:00:00-04:00,143.03587341308594,143.04582514463127,141.4451589090506,143.03587341308594,377300,0.0,0.0
2024-06-28 00:00:00-04:00,142.9463882562167,143.48326592890723,139.27777978400968,139.9936065673828,435100,0.0,0.0
2024-07-01 00:00:00-04:00,140.56031649992028,140.65972762098727,137.58764636312122,137.7367706298828,306400,0.0,0.0
2024-07-02 00:00:00-04:00,137.6771168664537,139.6854095648267,136.96129006644594,139.5859832763672,259400,0.0,0.0
2024-07-03 00:00:00-04:00,140.063219987868,140.58019424318394,139.75501971288125,140.4012451171875,143300,0.0,0.0
2024-07-05 00:00:00-04:00,140.17258910255097,140.61997710784055,138.91988448335212,140.08309936523438,207000,0.0,0.0
2024-07-08 00:00:00-04:00,140.8287476496575,141.67382566032194,140.67962337498633,140.68955993652344,249300,0.0,0.0
2024-07-09 00:00:00-04:00,140.04332622757835,140.45095278130893,138.93976114938218,139.2280731201172,238400,0.0,0.0
2024-07-10 00:00:00-04:00,139.93396267066512,140.808865480054,139.75501355255665,140.4708251953125,142000,0.0,0.0
2024-07-11 00:00:00-04:00,140.38135020760953,142.46918093443176,139.93396224338247,141.2661895751953,244500,0.0,0.0
2024-07-12 00:00:00-04:00,142.5785575352512,144.64650016944287,142.5785575352512,143.751708984375,263900,0.0,0.0
2024-07-15 00:00:00-04:00,143.92070998156234,144.8453259480649,142.31010721643665,142.59841918945312,319900,0.0,0.0
2024-07-16 00:00:00-04:00,143.01600293382853,144.45759319455206,143.01600293382853,143.7218780517578,178800,0.0,0.0
2024-07-17 00:00:00-04:00,143.50313696887406,144.92485395451703,143.50313696887406,144.02012634277344,242300,0.0,0.0
2024-07-18 00:00:00-04:00,143.77158413178512,146.39627739473178,143.7616475708671,145.43190002441406,434200,0.0,0.0
2024-07-19 00:00:00-04:00,145.74009743474508,145.74009743474508,143.82129446289454,145.0938720703125,251200,0.0,0.0
2024-07-22 00:00:00-04:00,145.14359967477395,146.7044894018996,144.40788450924526,146.33663940429688,235700,0.0,0.0
2024-07-23 00:00:00-04:00,147.01267493335766,147.64896373659573,144.82543312037194,145.1932830810547,234500,0.0,0.0
2024-07-24 00:00:00-04:00,145.22312418531487,145.77987499600405,143.06569203841158,143.30430603027344,250600,0.0,0.0
2024-07-25 00:00:00-04:00,142.4466137172535,143.66334017802635,140.84093471363238,141.11021423339844,558100,0.45,0.0
2024-07-26 00:00:00-04:00,142.7458185274977,150.8839040725973,141.9679134034649,146.26634216308594,562800,0.0,0.0
2024-07-29 00:00:00-04:00,146.18654807363913,147.9518012557539,144.78032917910988,147.4032745361328,390900,0.0,0.0
2024-07-30 00:00:00-04:00,146.98440955393974,147.50300282044066,145.01969618270712,145.35877990722656,411000,0.0,0.0
2024-07-31 00:00:00-04:00,146.10677238813136,148.4504707285892,145.0197017612093,146.58547973632812,280600,0.0,0.0
2024-08-01 00:00:00-04:00,146.48575417142177,149.13860271713426,145.03963404176758,146.63534545898438,335300,0.0,0.0
2024-08-02 00:00:00-04:00,146.1865607027143,146.60543153811187,143.36415499050057,145.2989501953125,213500,0.0,0.0
2024-08-05 00:00:00-04:00,143.04500195071893,143.04500195071893,139.10560747243943,140.30238342285156,448500,0.0,0.0
2024-08-06 00:00:00-04:00,140.9506421425725,145.69785981497913,140.7312314517885,144.5409698486328,476000,0.0,0.0
2024-08-07 00:00:00-04:00,145.61807332642232,146.86471806655007,143.08489791032852,143.2145538330078,353600,0.0,0.0
2024-08-08 00:00:00-04:00,144.07225793334294,145.76769187651146,144.07225793334294,145.16929626464844,268600,0.0,0.0
2024-08-09 00:00:00-04:00,145.01970173177108,145.01970173177108,143.08490654350197,143.56361389160156,263200,0.0,0.0
2024-08-12 00:00:00-04:00,143.58356293459363,143.7929907393466,142.38678696822322,142.90538024902344,221100,0.0,0.0
2024-08-13 00:00:00-04:00,143.12479067928683,144.9099945543652,142.71590275055541,143.98248291015625,212000,0.0,0.0
2024-08-14 00:00:00-04:00,143.74314177678474,144.42130926648593,143.10486022619372,143.5137481689453,115700,0.0,0.0
2024-08-15 00:00:00-04:00,144.61078772865739,146.94450299558522,144.61078772865739,146.61538696289062,277500,0.0,0.0
2024-08-16 00:00:00-04:00,145.7178086429149,146.4458448984164,145.21915075490517,146.326171875,250600,0.0,0.0
2024-08-19 00:00:00-04:00,145.9272513224637,147.33345499792665,145.52831588225743,146.57550048828125,191200,0.0,0.0
2024-08-20 00:00:00-04:00,146.58547636304425,147.91190824245643,146.58547636304425,147.7124481201172,387200,0.0,0.0
2024-08-21 00:00:00-04:00,147.77227873284713,149.16852996911774,147.06419304414976,148.92916870117188,267300,0.0,0.0
2024-08-22 00:00:00-04:00,149.16853288609883,149.99629161604025,148.27093952712292,148.590087890625,200400,0.0,0.0
2024-08-23 00:00:00-04:00,149.25828872832403,150.1259486188488,149.03887803129888,150.03619384765625,221400,0.0,0.0
2024-08-26 00:00:00-04:00,150.27553600322852,152.26019990468,149.7369921722213,149.75694274902344,235500,0.0,0.0
2024-08-27 00:00:00-04:00,149.6073354575319,151.133227391442,149.4377936001898,150.7941436767578,208300,0.0,0.0
2024-08-28 00:00:00-04:00,150.5248764586845,151.56209348205394,150.5248764586845,151.13323974609375,249000,0.0,0.0
2024-08-29 00:00:00-04:00,152.14052586050624,152.49956015138338,150.8041263625091,151.87124633789062,187100,0.0,0.0
2024-08-30 00:00:00-04:00,151.79146048136437,153.0281375417213,151.23296607276166,152.77880859375,178500,0.0,0.0
2024-09-03 00:00:00-04:00,151.7017037750138,151.97098329637666,149.32808735093408,149.6372528076172,362400,0.0,0.0
2024-09-04 00:00:00-04:00,149.19845240971176,150.49495079841,149.19845240971176,150.32540893554688,175800,0.0,0.0
2024-09-05 00:00:00-04:00,150.67447925817638,151.35264672627906,149.54750748684052,150.31544494628906,200600,0.0,0.0
2024-09-06 00:00:00-04:00,149.9763613557829,152.70899702647708,149.9763613557829,151.9709930419922,319100,0.0,0.0
2024-09-09 00:00:00-04:00,152.16047510581276,152.64915009618142,151.03350341028641,151.5022430419922,241500,0.0,0.0
2024-09-10 00:00:00-04:00,151.46235157142956,152.37988031700135,151.03351306529763,151.1033172607422,158100,0.0,0.0
2024-09-11 00:00:00-04:00,150.38525079268496,150.4750207850162,148.23106011554742,150.43511962890625,178000,0.0,0.0
2024-09-12 00:00:00-04:00,150.4849887540154,151.60197764192228,149.56745999354442,151.5521240234375,200400,0.0,0.0
2024-09-13 00:00:00-04:00,151.78149156962914,152.5992825990635,151.492261470345,151.87124633789062,138600,0.0,0.0
2024-09-16 00:00:00-04:00,152.62921458132197,152.7588705145806,151.66183218445363,152.57936096191406,182900,0.0,0.0
2024-09-17 00:00:00-04:00,153.5866296991098,155.15242277397783,151.46234222382526,152.61923217773438,259900,0.0,0.0
2024-09-18 00:00:00-04:00,153.3472690170848,155.07263627515385,152.30009962123864,152.6591339111328,214200,0.0,0.0
2024-09-19 00:00:00-04:00,154.60390786200904,158.38372825071872,154.60390786200904,156.47885131835938,412400,0.0,0.0
2024-09-20 00:00:00-04:00,155.8904363617549,155.8904363617549,154.06534655021557,155.49151611328125,663300,0.0,0.0
2024-09-23 00:00:00-04:00,155.75080963595366,156.48882882047508,154.32465531926172,155.5413818359375,315800,0.0,0.0
2024-09-24 00:00:00-04:00,155.7607751810832,156.65836853663214,155.61118389740747,156.20957946777344,246200,0.0,0.0
2024-09-25 00:00:00-04:00,156.87777486028946,157.44623694025017,155.4516053850471,156.71820068359375,284100,0.0,0.0
2024-09-26 00:00:00-04:00,157.5160583780924,158.6330471936873,157.2766971099658,157.9548797607422,371600,0.0,0.0
2024-09-27 00:00:00-04:00,158.25407181382246,161.11637865217875,157.83520098285544,159.46083068847656,354300,0.0,0.0
2024-09-30 00:00:00-04:00,158.86243164794053,159.98940340400793,158.50339734091747,159.76002502441406,289800,0.0,0.0
2024-10-01 00:00:00-04:00,160.10908102182546,160.10908102182546,158.62309013398428,159.54061889648438,192200,0.0,0.0
2024-10-02 00:00:00-04:00,159.4309042020019,159.6802331516974,157.53601027144867,158.32388305664062,186900,0.0,0.0
2024-10-03 00:00:00-04:00,157.56593495409092,160.02930629497408,156.21955248369235,158.5133819580078,367000,0.0,0.0
2024-10-04 00:00:00-04:00,159.51069006003982,161.0365820029643,158.90232681876836,160.1489715576172,350500,0.0,0.0
2024-10-07 00:00:00-04:00,158.96217139030824,159.21150035071827,157.58587065913858,158.26405334472656,223300,0.0,0.0
2024-10-08 00:00:00-04:00,157.85514229856898,158.59316146287298,156.67831696887936,158.2440948486328,205900,0.0,0.0
2024-10-09 00:00:00-04:00,157.92496457453083,159.62039840768432,157.69557098143002,159.27133178710938,152600,0.0,0.0
2024-10-10 00:00:00-04:00,157.62577532209792,158.9522072471334,157.62577532209792,158.79263305664062,168500,0.0,0.0
2024-10-11 00:00:00-04:00,160.50801550631274,161.48538077936988,159.91960280646023,161.1163787841797,194400,0.0,0.0
2024-10-14 00:00:00-04:00,164.5471496015545,167.3097035833241,163.02125754964115,166.74124145507812,469700,0.0,0.0
2024-10-15 00:00:00-04:00,166.8708837749407,169.2045990501098,166.0431098506034,168.2272186279297,397300,0.0,0.0
2024-10-16 00:00:00-04:00,168.2471783490178,168.74583626660103,165.47464154468156,165.5943145751953,330000,0.0,0.0
2024-10-17 00:00:00-04:00,166.53178529804745,167.86820001373155,166.07302855953967,167.43934631347656,238200,0.0,0.0
2024-10-18 00:00:00-04:00,168.64610780732278,168.64610780732278,167.32964364723057,168.1773681640625,171500,0.0,0.0
2024-10-21 00:00:00-04:00,168.01780020340925,168.0377507811335,165.85362666420463,165.883544921875,217900,0.0,0.0
2024-10-22 00:00:00-04:00,165.27517443013002,165.92342360843475,164.3676134062384,165.36492919921875,228500,0.0,0.0
2024-10-23 00:00:00-04:00,166.06305748263202,167.52911300642305,165.71400606419698,167.1999969482422,318100,0.0,0.0
2024-10-24 00:00:00-04:00,168.32000732421875,168.3300018310547,166.14999389648438,166.5500030517578,547300,0.45,0.0
2024-10-25 00:00:00-04:00,168.9199981689453,169.85000610351562,164.61000061035156,168.91000366210938,518900,0.0,0.0
2024-10-28 00:00:00-04:00,169.89999389648438,171.41000366210938,168.75999450683594,169.10000610351562,350000,0.0,0.0
2024-10-29 00:00:00-04:00,169.02999877929688,169.49000549316406,167.63999938964844,168.6999969482422,338100,0.0,0.0
2024-10-30 00:00:00-04:00,168.35000610351562,170.1999969482422,168.1199951171875,169.02999877929688,290300,0.0,0.0
2024-10-31 00:00:00-04:00,169.08999633789062,170.27999877929688,167.86000061035156,167.91000366210938,329900,0.0,0.0
2024-11-01 00:00:00-04:00,168.10000610351562,170.99000549316406,167.6199951171875,169.41000366210938,316300,0.0,0.0
2024-11-04 00:00:00-05:00,169.6300048828125,170.57000732421875,168.17999267578125,168.25999450683594,191800,0.0,0.0
2024-11-05 00:00:00-05:00,167.74000549316406,170.36000061035156,167.74000549316406,170.30999755859375,206200,0.0,0.0
2024-11-06 00:00:00-05:00,175.14999389648438,175.14999389648438,172.13999938964844,173.16000366210938,264100,0.0,0.0
2024-11-07 00:00:00-05:00,174.1999969482422,175.4600067138672,173.5399932861328,174.7100067138672,412300,0.0,0.0
2024-11-08 00:00:00-05:00,174.6999969482422,177.83999633789062,174.49000549316406,175.75999450683594,309200,0.0,0.0
2024-11-11 00:00:00-05:00,176.32000732421875,178.02999877929688,175.89999389648438,176.14999389648438,189100,0.0,0.0
2024-11-12 00:00:00-05:00,176.64999389648438,177.24000549316406,174.9499969482422,175.6999969482422,179800,0.0,0.0
2024-11-13 00:00:00-05:00,175.5,176.38999938964844,175.0500030517578,175.5,168400,0.0,0.0
2024-11-14 00:00:00-05:00,175.14999389648438,175.7899932861328,173.91000366210938,174.10000610351562,198200,0.0,0.0
2024-11-15 00:00:00-05:00,172.97000122070312,173.49000549316406,166.19000244140625,166.49000549316406,620423,0.0,0.0
