Date,Open,High,Low,Close,Volume,Dividends,Stock Splits
2022-01-03 00:00:00-05:00,117.7417621791586,118.28027163726163,114.71263180404685,116.18392181396484,234900,0.0,0.0
2022-01-04 00:00:00-05:00,116.35703411272208,118.20335884363392,115.35693971598424,116.72245025634766,337300,0.0,0.0
2022-01-05 00:00:00-05:00,116.58782639409505,119.37655025090086,116.58782639409505,118.3379898071289,367600,0.0,0.0
2022-01-06 00:00:00-05:00,118.79955938779734,119.24190751916501,117.32826928339934,117.84754943847656,231900,0.0,0.0
2022-01-07 00:00:00-05:00,118.01103412219994,119.03997617924534,117.28981284847721,118.93419647216797,335100,0.0,0.0
2022-01-10 00:00:00-05:00,118.23219696947736,119.13612992240715,117.01093225227031,117.36673736572266,398400,0.0,0.0
2022-01-11 00:00:00-05:00,117.58790633261613,118.26105053877625,116.09738688249904,117.81869506835938,135500,0.0,0.0
2022-01-12 00:00:00-05:00,117.62637307739448,118.280280613275,115.99160790601401,116.64551544189453,206600,0.0,0.0
2022-01-13 00:00:00-05:00,117.00132751464844,117.63600579025834,115.75121497689473,117.00132751464844,193200,0.0,0.0
2022-01-14 00:00:00-05:00,116.62628221489045,116.8282232829733,115.27039009015085,116.53012084960938,179000,0.0,0.0
2022-01-18 00:00:00-05:00,115.98200183532012,116.74168915122196,114.27030445829881,115.75121307373047,232500,0.0,0.0
2022-01-19 00:00:00-05:00,116.12623915161626,117.2224948605692,115.87621373162852,116.76091003417969,252600,0.0,0.0
2022-01-20 00:00:00-05:00,116.18394023513841,117.61676446284861,114.25106514278475,114.27030181884766,297700,0.0,0.0
2022-01-21 00:00:00-05:00,114.64533501625944,115.46271766037235,111.38541544108945,111.914306640625,351800,0.0,0.0
2022-01-24 00:00:00-05:00,111.15461293101922,112.75091944863918,109.65447511379894,112.53936004638672,329300,0.0,0.0
2022-01-25 00:00:00-05:00,110.31799757108932,112.4528135287895,108.76015711466556,111.57772827148438,470000,0.0,0.0
2022-01-26 00:00:00-05:00,111.33733863733565,113.03942506979597,110.01991238148847,110.76998138427734,1542500,0.0,0.0
2022-01-27 00:00:00-05:00,111.33732822660114,113.76063575617066,108.34666349702474,109.2890625,263900,0.0,0.0
2022-01-28 00:00:00-05:00,109.46215014054405,110.68341484216155,108.1350984033289,110.63533782958984,323100,0.0,0.0
2022-01-31 00:00:00-05:00,110.59688137311167,112.8374699091923,109.84681241508412,112.79901123046875,486300,0.0,0.0
2022-02-01 00:00:00-05:00,112.59706511029461,114.36646516996959,111.98162352518393,112.97210693359375,214000,0.0,0.0
2022-02-02 00:00:00-05:00,112.5861998960454,112.89491926665629,111.92052812343312,112.50902557373047,363600,0.38,0.0
2022-02-03 00:00:00-05:00,112.33536885240096,113.24222785027685,110.85930415287876,111.12943267822266,167700,0.0,0.0
2022-02-04 00:00:00-05:00,110.63739672883116,111.93980618442228,109.65335615540329,111.19695281982422,242700,0.0,0.0
2022-02-07 00:00:00-05:00,111.54426568873583,111.9398088933551,110.2997387778026,110.69528198242188,263300,0.0,0.0
2022-02-08 00:00:00-05:00,110.94611721353087,112.3353579061572,110.69528045281787,111.9591064453125,204200,0.0,0.0
2022-02-09 00:00:00-05:00,112.95281359009903,113.51236977117571,112.10382976765145,112.44149780273438,295900,0.0,0.0
2022-02-10 00:00:00-05:00,111.44779534059438,113.11681426082345,109.65336906721824,110.56987762451172,267100,0.0,0.0
2022-02-11 00:00:00-05:00,110.98471695484109,112.33536691876199,108.8912135590113,109.70159912109375,230600,0.0,0.0
2022-02-14 00:00:00-05:00,109.70159124837282,110.47339327535367,108.47636344302407,110.07784271240234,266600,0.0,0.0
2022-02-15 00:00:00-05:00,110.61810707546879,112.03628170733793,109.40252145913132,110.07784271240234,263000,0.0,0.0
2022-02-16 00:00:00-05:00,110.22255845732707,111.02330178636964,109.11309578413493,110.65669250488281,271400,0.0,0.0
2022-02-17 00:00:00-05:00,109.94278501710231,112.16171045663877,109.32534630288262,111.53462219238281,362400,0.0,0.0
2022-02-18 00:00:00-05:00,112.18099341347138,117.23627525052963,110.38655999061817,114.26485443115234,462300,0.0,0.0
2022-02-22 00:00:00-05:00,114.32273300161589,115.9435112828922,113.18432912119026,114.90158081054688,437200,0.0,0.0
2022-02-23 00:00:00-05:00,115.51902093577635,116.06892746537808,113.4544590625032,113.54129028320312,321100,0.0,0.0
2022-02-24 00:00:00-05:00,112.17133558791713,113.20361647131263,110.67597941950345,112.75019073486328,349300,0.0,0.0
2022-02-25 00:00:00-05:00,113.02997495037894,117.31345469342202,112.70195652511408,116.7056655883789,260100,0.0,0.0
2022-02-28 00:00:00-05:00,115.2585542148916,117.72830908542254,115.07524956543966,117.5835952758789,316300,0.0,0.0
2022-03-01 00:00:00-05:00,117.66076297224882,118.60622003651386,114.35167428799505,114.90158081054688,325700,0.0,0.0
2022-03-02 00:00:00-05:00,114.89194871424273,115.82775637171864,113.84037589366487,114.20697784423828,435100,0.0,0.0
2022-03-03 00:00:00-05:00,114.68934795342238,115.52868215621915,113.27117323624519,115.12348937988281,196100,0.0,0.0
2022-03-04 00:00:00-05:00,113.8886162460505,116.14612525116544,113.54130603596353,115.95317840576172,206700,0.0,0.0
2022-03-07 00:00:00-05:00,115.10419470029356,116.10753449007566,112.34501211850537,112.41254425048828,337300,0.0,0.0
2022-03-08 00:00:00-05:00,112.83703396810192,114.12015181149354,106.1609731390954,106.3056869506836,382800,0.0,0.0
2022-03-09 00:00:00-05:00,107.26078552328468,110.3479791318333,107.26078552328468,109.27710723876953,224800,0.0,0.0
2022-03-10 00:00:00-05:00,107.88787677356763,109.65336911740664,107.5116252721528,108.30271911621094,223200,0.0,0.0
2022-03-11 00:00:00-05:00,109.3060575309679,109.71125031809136,108.28341865241075,108.34130859375,237100,0.0,0.0
2022-03-14 00:00:00-04:00,108.84296216785393,111.82403986524349,108.79472178241275,110.4830322265625,173800,0.0,0.0
2022-03-15 00:00:00-04:00,111.03293738211981,112.80807902590456,110.0681885688855,112.69230651855469,199500,0.0,0.0
2022-03-16 00:00:00-04:00,113.5702290245646,114.91122925723037,110.32867249310584,112.86595916748047,266800,0.0,0.0
2022-03-17 00:00:00-04:00,113.10716193065242,114.33239718752077,111.2066053703174,114.23592376708984,163300,0.0,0.0
2022-03-18 00:00:00-04:00,113.93683347735454,114.64110335027142,112.17134138097809,113.58952331542969,286800,0.0,0.0
2022-03-21 00:00:00-04:00,113.57990258473106,114.48676163624026,112.55726364344093,114.47711944580078,309100,0.0,0.0
2022-03-22 00:00:00-04:00,115.55762397532759,116.21365353259448,113.22293336522634,113.52200317382812,294100,0.0,0.0
2022-03-23 00:00:00-04:00,113.6474229686031,113.93684322132572,110.01996505630333,110.62775421142578,256800,0.0,0.0
2022-03-24 00:00:00-04:00,110.94613153471481,112.12312645562473,109.98138256484772,111.76616668701172,210100,0.0,0.0
2022-03-25 00:00:00-04:00,112.73089577374684,113.12644631464258,111.9108607660852,113.10714721679688,148000,0.0,0.0
2022-03-28 00:00:00-04:00,113.29045696631347,113.42552121554328,110.9557665319699,112.38359069824219,167300,0.0,0.0
2022-03-29 00:00:00-04:00,113.3676525597173,115.37432480627777,113.3676525597173,115.11384582519531,184700,0.0,0.0
2022-03-30 00:00:00-04:00,115.35503911523813,115.35503911523813,114.07192116227144,114.63147735595703,156600,0.0,0.0
2022-03-31 00:00:00-04:00,114.2262695488852,115.60586074997394,113.32905279068832,113.35799407958984,211200,0.0,0.0
2022-04-01 00:00:00-04:00,113.98508266245248,115.42255644556917,113.15539802940394,114.82440948486328,400800,0.0,0.0
2022-04-04 00:00:00-04:00,114.53499357856077,114.53499357856077,111.13907323997073,114.23592376708984,286300,0.0,0.0
2022-04-05 00:00:00-04:00,113.50271333845193,115.00771931724746,113.44482339741732,113.57989501953125,225300,0.0,0.0
2022-04-06 00:00:00-04:00,113.12645752431791,114.72793686308921,112.24853249657495,114.16838073730469,194300,0.0,0.0
2022-04-07 00:00:00-04:00,113.75355279029463,116.34872247352759,112.51866794540692,115.7698745727539,331900,0.0,0.0
2022-04-08 00:00:00-04:00,115.58656100312787,117.92125888759224,115.58656100312787,117.13016510009766,305300,0.0,0.0
2022-04-11 00:00:00-04:00,116.86003632903035,117.98879818158056,114.76653289794922,114.76653289794922,208000,0.0,0.0
2022-04-12 00:00:00-04:00,115.02701286874412,115.9531709156666,112.29677175598678,112.88526916503906,187400,0.0,0.0
2022-04-13 00:00:00-04:00,112.76950236140587,113.840374267504,112.76950236140587,113.72460174560547,120200,0.0,0.0
2022-04-14 00:00:00-04:00,113.28081212481268,114.51568951791987,112.8370285216929,113.26152038574219,163300,0.0,0.0
2022-04-18 00:00:00-04:00,112.66338695065294,113.39659825098254,109.57619309734531,109.99103546142578,137100,0.0,0.0
2022-04-19 00:00:00-04:00,110.53128326543148,113.49306214993237,109.50865176746802,113.09751892089844,221600,0.0,0.0
2022-04-20 00:00:00-04:00,113.82108332208605,115.5286857094226,113.19399503821207,115.2874984741211,141200,0.0,0.0
2022-04-21 00:00:00-04:00,116.0110645942989,116.1075380200003,114.16839051346466,114.74724578857422,178200,0.0,0.0
2022-04-22 00:00:00-04:00,114.41922437924455,114.41922437924455,112.32572091727545,112.50902557373047,179900,0.0,0.0
2022-04-25 00:00:00-04:00,112.39325363194546,112.39325363194546,108.22553842687846,111.33203125,379600,0.0,0.0
2022-04-26 00:00:00-04:00,110.70288050982847,111.65145397595214,106.89889044478087,107.0344009399414,295300,0.38,0.0
2022-04-27 00:00:00-04:00,107.38285376112813,109.36711871341065,107.0247146773615,107.5377197265625,231500,0.0,0.0
2022-04-28 00:00:00-04:00,107.61516136035077,108.64117150602922,106.03742780249848,108.50566101074219,289200,0.0,0.0
2022-04-29 00:00:00-04:00,108.91217939267737,112.71616900359386,108.91217939267737,111.14811706542969,640200,0.0,0.0
2022-05-02 00:00:00-04:00,111.7191893045949,113.21949329964922,108.4766046603583,109.75428009033203,457000,0.0,0.0
2022-05-03 00:00:00-04:00,109.3671207061983,111.6708138314405,109.02834447741796,110.18019104003906,225400,0.0,0.0
2022-05-04 00:00:00-04:00,109.72525045590284,113.03559055493056,109.10577186607662,113.00655364990234,346900,0.0,0.0
2022-05-05 00:00:00-04:00,111.78697140158712,112.45484987254778,108.28304640267712,109.1832275390625,179000,0.0,0.0
2022-05-06 00:00:00-04:00,108.10880111523298,108.13783802089878,106.24068387480183,107.6635513305664,331800,0.0,0.0
2022-05-09 00:00:00-04:00,106.47299250713762,107.53772095525542,103.2400888247913,103.57886505126953,276700,0.0,0.0
2022-05-10 00:00:00-04:00,104.11122118550323,105.14691268257285,100.6072966699728,101.18805694580078,411800,0.0,0.0
2022-05-11 00:00:00-04:00,101.0428628069812,103.9757084124212,100.19108158016333,100.72344207763672,297800,0.0,0.0
2022-05-12 00:00:00-04:00,100.39434997670615,103.24008494162238,99.93941875336048,103.03681182861328,389300,0.0,0.0
2022-05-13 00:00:00-04:00,103.56917850987446,104.8178171556516,103.33687587814796,104.06282806396484,226900,0.0,0.0
2022-05-16 00:00:00-04:00,103.84987471206016,104.94363994825231,102.94001233032779,104.85652923583984,202500,0.0,0.0
2022-05-17 00:00:00-04:00,106.59880739539592,106.85047286650862,104.75005315681338,105.46632385253906,311200,0.0,0.0
2022-05-18 00:00:00-04:00,104.52743996862345,105.40826555473339,100.24916325406431,100.7331314086914,325900,0.0,0.0
2022-05-19 00:00:00-04:00,100.07493026216191,101.24613226149188,98.98116493669698,100.17172241210938,357000,0.0,0.0
2022-05-20 00:00:00-04:00,101.61394470524795,101.92368399135758,94.07372088192736,96.52259826660156,796300,0.0,0.0
2022-05-23 00:00:00-04:00,97.71317045252142,101.23645813513671,96.47421312036242,100.87832641601562,545200,0.0,0.0
2022-05-24 00:00:00-04:00,101.14933157196936,102.23342276025205,99.52319848192883,101.58489990234375,567400,0.0,0.0
2022-05-25 00:00:00-04:00,100.16205250253758,101.89465199701577,99.19411619355768,101.10094451904297,493400,0.0,0.0
2022-05-26 00:00:00-04:00,102.31086887254956,103.52078930569121,101.90433737935837,103.1142578125,188200,0.0,0.0
2022-05-27 00:00:00-04:00,103.53045012742552,105.43728553203222,103.53045012742552,105.39856719970703,178000,0.0,0.0
2022-05-31 00:00:00-04:00,104.61453493944398,105.92124719098429,102.94000224548466,103.6562728881836,306100,0.0,0.0
2022-06-01 00:00:00-04:00,104.04345219986055,104.45966502976667,102.2430904132682,103.81114959716797,313900,0.0,0.0
2022-06-02 00:00:00-04:00,104.14994005394632,106.5020254601185,103.40463238336682,106.30844116210938,145400,0.0,0.0
2022-06-03 00:00:00-04:00,105.23402573334636,106.24068027601083,104.7694131041292,105.31146240234375,139800,0.0,0.0
2022-06-06 00:00:00-04:00,106.07613458918318,107.25701804580146,104.85654017951946,105.74703979492188,207400,0.0,0.0
2022-06-07 00:00:00-04:00,105.15659407904302,106.80208275748781,104.92429144574002,106.647216796875,132900,0.0,0.0
2022-06-08 00:00:00-04:00,105.46632895853068,105.88254182581218,103.82084034914836,104.25640869140625,157700,0.0,0.0
2022-06-09 00:00:00-04:00,103.34655400071749,104.24673504203415,102.40766200655881,102.43669891357422,193800,0.0,0.0
2022-06-10 00:00:00-04:00,100.25882955065124,102.49475972438518,99.82325384637697,101.8268814086914,266800,0.0,0.0
2022-06-13 00:00:00-04:00,99.57159961244251,99.9200572354336,97.80995602277297,98.73917388916016,252100,0.0,0.0
2022-06-14 00:00:00-04:00,98.3520005631831,99.00051606257901,95.23524473236205,96.32901000976562,227900,0.0,0.0
2022-06-15 00:00:00-04:00,97.08399342586709,97.99384833487046,95.38042382841516,97.15174865722656,283300,0.0,0.0
2022-06-16 00:00:00-04:00,95.71921564085466,95.71921564085466,91.01504485201731,91.73131561279297,620400,0.0,0.0
2022-06-17 00:00:00-04:00,91.46028927341104,95.30299716070294,91.4506152284642,94.373779296875,458500,0.0,0.0
2022-06-21 00:00:00-04:00,94.83839333326725,95.53530120293945,93.9769233103088,94.07372283935547,236100,0.0,0.0
2022-06-22 00:00:00-04:00,93.28001820478319,95.67081451687663,93.15418176720053,95.3030014038086,228200,0.0,0.0
2022-06-23 00:00:00-04:00,95.457876692609,96.13542912121936,94.05436468367671,95.7579345703125,152100,0.0,0.0
2022-06-24 00:00:00-04:00,96.84202450103547,99.35865726718576,96.47420400079217,99.32962036132812,327300,0.0,0.0
2022-06-27 00:00:00-04:00,99.32962424953357,100.81056558438327,98.7198196635829,100.24916076660156,185200,0.0,0.0
2022-06-28 00:00:00-04:00,100.87832608145588,101.02351800875479,98.7101507573683,99.40705871582031,280200,0.0,0.0
2022-06-29 00:00:00-04:00,99.19411013638518,100.55889640862841,98.0906560175427,100.0749282836914,220900,0.0,0.0
2022-06-30 00:00:00-04:00,99.0489145906363,100.18139818912574,98.11969671099618,99.90069580078125,205900,0.0,0.0
2022-07-01 00:00:00-04:00,100.02652790935127,101.31388488620362,98.88437023081858,101.13965606689453,262300,0.0,0.0
2022-07-05 00:00:00-04:00,100.02651890131425,100.02651890131425,97.73251493589649,99.61998748779297,230200,0.0,0.0
2022-07-06 00:00:00-04:00,100.21044650274786,100.2298093647097,98.25521837638362,99.34898376464844,286400,0.0,0.0
2022-07-07 00:00:00-04:00,99.16506781943724,99.98781955601999,98.58430753490707,99.80390930175781,221200,0.0,0.0
2022-07-08 00:00:00-04:00,99.4361022021081,99.72647866958114,96.79363277797151,96.80331420898438,208100,0.0,0.0
2022-07-11 00:00:00-04:00,96.60970556940609,96.90977080003546,95.31267466233992,96.35804748535156,186900,0.0,0.0
2022-07-12 00:00:00-04:00,96.28059995656314,98.58428509421206,96.03861594436096,97.2872543334961,284300,0.0,0.0
2022-07-13 00:00:00-04:00,96.53229875204018,98.0616326251704,96.31935156615953,97.44215393066406,202500,0.0,0.0
2022-07-14 00:00:00-04:00,96.38708692883118,96.70650764174205,95.18684074421463,96.1160659790039,199800,0.0,0.0
2022-07-15 00:00:00-04:00,97.57765884034727,97.57765884034727,96.02896219285336,96.80331420898438,195300,0.0,0.0
2022-07-18 00:00:00-04:00,97.34533995033493,97.71315303501639,94.56736049451118,94.95453643798828,179900,0.0,0.0
2022-07-19 00:00:00-04:00,95.39012573860374,97.84867745282509,95.39012573860374,97.79060363769531,635400,0.0,0.0
2022-07-20 00:00:00-04:00,97.44214672795364,99.19411647379911,97.43247268186946,98.5552749633789,458900,0.0,0.0
2022-07-21 00:00:00-04:00,98.64238869329247,100.27819596584278,98.32296795225979,100.16204833984375,138900,0.0,0.0
2022-07-22 00:00:00-04:00,100.28787204269864,100.64601110153538,99.0489148663958,100.27819061279297,214600,0.0,0.0
2022-07-25 00:00:00-04:00,100.39435209935876,101.15902264639725,99.61032607602652,100.58793640136719,267400,0.0,0.0
2022-07-26 00:00:00-04:00,100.170194048027,100.91823703799618,98.97525976217274,100.86966705322266,262200,0.38,0.0
2022-07-27 00:00:00-04:00,101.26799213718691,103.50241937945636,100.68510032977314,103.0069580078125,229200,0.0,0.0
2022-07-28 00:00:00-04:00,103.05552239303853,104.74591064453125,102.15203761154112,104.74591064453125,249800,0.0,0.0
2022-07-29 00:00:00-04:00,104.11443230820349,106.3682855815893,103.35667238009782,104.68761444091797,424400,0.0,0.0
2022-08-01 00:00:00-04:00,103.26924406560903,105.5522408578072,102.59891454085113,105.11506652832031,277000,0.0,0.0
2022-08-02 00:00:00-04:00,104.78476672505046,104.95963497909784,102.8126459449923,103.55097198486328,209700,0.0,0.0
2022-08-03 00:00:00-04:00,104.26987818393255,105.71739419156404,103.4052538816942,104.57103729248047,260700,0.0,0.0
2022-08-04 00:00:00-04:00,104.14358424401739,104.16301816839783,102.84179296160565,103.40525817871094,292600,0.0,0.0
2022-08-05 00:00:00-04:00,102.65719811713441,103.6286867127243,102.09373295284352,102.63777160644531,174600,0.0,0.0
2022-08-08 00:00:00-04:00,103.10409705994307,104.92078366764714,102.98752315502082,104.21159362792969,219300,0.0,0.0
2022-08-09 00:00:00-04:00,104.68762844593176,104.92078366764714,103.45383359845157,104.21159362792969,249200,0.0,0.0
2022-08-10 00:00:00-04:00,106.11571481505423,107.58265742729695,104.96935784336637,106.64031219482422,152900,0.0,0.0
2022-08-11 00:00:00-04:00,107.48550093623498,108.11697002520668,106.4265818920995,106.5042953491211,171100,0.0,0.0
2022-08-12 00:00:00-04:00,107.36892516876607,107.98096777800639,106.99976214030221,107.9129638671875,201300,0.0,0.0
2022-08-15 00:00:00-04:00,107.52435745984268,109.22446249269318,107.52435745984268,108.71929168701172,146500,0.0,0.0
2022-08-16 00:00:00-04:00,107.99068215173514,109.05931818693435,107.55350781106033,108.8747329711914,187700,0.0,0.0
2022-08-17 00:00:00-04:00,107.83524403755561,108.29184490541572,106.91233275153192,107.86438751220703,173100,0.0,0.0
2022-08-18 00:00:00-04:00,107.77695708825279,107.9712518605092,106.83461187788117,107.86438751220703,197300,0.0,0.0
2022-08-19 00:00:00-04:00,108.00038607847436,108.0878239068048,106.42657928722475,107.0191879272461,253400,0.0,0.0
2022-08-22 00:00:00-04:00,106.05741656534909,106.19342438650762,104.67790442967235,104.84305572509766,178300,0.0,0.0
2022-08-23 00:00:00-04:00,104.80420188543796,105.34824061618568,102.98752269767229,103.8424301147461,178000,0.0,0.0
2022-08-24 00:00:00-04:00,104.30874588649061,104.9887850215165,103.67727674004047,104.38645935058594,183000,0.0,0.0
2022-08-25 00:00:00-04:00,104.4738919450044,105.86312103271484,104.4738919450044,105.86312103271484,132900,0.0,0.0
2022-08-26 00:00:00-04:00,106.42659518155324,106.42659518155324,101.19998097993292,101.43314361572266,152000,0.0,0.0
2022-08-29 00:00:00-04:00,101.00568470995775,101.49142907623677,99.85932770906444,101.03482818603516,146800,0.0,0.0
2022-08-30 00:00:00-04:00,101.46227689185052,101.68571513051394,99.79131522936676,101.0833969116211,148900,0.0,0.0
2022-08-31 00:00:00-04:00,101.40398292129096,101.7731533529894,99.8204590853394,99.87874603271484,180300,0.0,0.0
2022-09-01 00:00:00-04:00,99.44157896609242,99.937040253709,98.44094684089028,99.69416809082031,212200,0.0,0.0
2022-09-02 00:00:00-04:00,100.39363302482401,101.20968734086333,97.84833751831246,98.53809356689453,206000,0.0,0.0
2022-09-06 00:00:00-04:00,98.3729442885735,98.97526251724804,96.96428127726792,97.4694595336914,159300,0.0,0.0
2022-09-07 00:00:00-04:00,97.77062433679954,100.675373538701,97.75119782359306,100.29649353027344,164200,0.0,0.0
2022-09-08 00:00:00-04:00,99.34443952003454,102.025743075991,99.2181412416454,101.89945220947266,137900,0.0,0.0
2022-09-09 00:00:00-04:00,102.66691631764351,103.77441273703431,101.69542771032738,103.37610626220703,197100,0.0,0.0
2022-09-12 00:00:00-04:00,104.12414098561473,105.1830599260623,103.69668366043699,104.05613708496094,154500,0.0,0.0
2022-09-13 00:00:00-04:00,102.16174886279974,102.73492360226841,101.01539197199229,101.05424499511719,271700,0.0,0.0
2022-09-14 00:00:00-04:00,100.85024643204804,101.33599081507398,99.52902111726779,100.6268081665039,250700,0.0,0.0
2022-09-15 00:00:00-04:00,100.30619234168317,102.3948941972737,100.27704887121182,102.20059204101562,423000,0.0,0.0
2022-09-16 00:00:00-04:00,101.35541844309984,101.35541844309984,98.50895623896417,99.7136001586914,579400,0.0,0.0
2022-09-19 00:00:00-04:00,98.94611567543599,101.56913942865609,98.9363987137935,101.5497055053711,194400,0.0,0.0
2022-09-20 00:00:00-04:00,100.50049533997762,100.50049533997762,97.81919207023071,98.29521942138672,157500,0.0,0.0
2022-09-21 00:00:00-04:00,98.88782852205546,99.3638558753593,96.78940952387761,96.8282699584961,173500,0.0,0.0
2022-09-22 00:00:00-04:00,96.31337139017592,96.31337139017592,94.49668518742202,95.32245635986328,199200,0.0,0.0
2022-09-23 00:00:00-04:00,94.16640914567,95.50706101378228,94.16640914567,95.28362274169922,274900,0.0,0.0
2022-09-26 00:00:00-04:00,94.7201437390094,95.64305499530806,93.68065117598944,94.6327133178711,364000,0.0,0.0
2022-09-27 00:00:00-04:00,95.19615533864385,95.98306605791993,92.51485243493492,93.32118225097656,238600,0.0,0.0
2022-09-28 00:00:00-04:00,93.99152515125796,95.69163025735305,93.31148607356793,95.43904113769531,237000,0.0,0.0
2022-09-29 00:00:00-04:00,94.448130161382,94.48699059780314,93.5252114730881,94.01095581054688,206400,0.0,0.0
2022-09-30 00:00:00-04:00,93.37949845865883,94.97273936691842,92.16513755834691,92.32057189941406,471500,0.0,0.0
2022-10-03 00:00:00-04:00,93.70979545491807,95.22531539596609,92.93260897237536,94.66185760498047,274200,0.0,0.0
2022-10-04 00:00:00-04:00,96.26481026562976,96.98371722927573,95.70135246119517,96.40082550048828,262900,0.0,0.0
2022-10-05 00:00:00-04:00,95.29332235631225,96.6436984587531,94.26354671334018,95.3807601928711,201300,0.0,0.0
2022-10-06 00:00:00-04:00,94.8755870155402,95.40018437459374,93.57378834431347,94.95330047607422,202100,0.0,0.0
2022-10-07 00:00:00-04:00,94.166395144661,94.166395144661,90.9313361611855,91.30050659179688,119000,0.0,0.0
2022-10-10 00:00:00-04:00,91.6988012040853,92.7480105890447,91.23249086312727,91.67937469482422,177300,0.0,0.0
2022-10-11 00:00:00-04:00,91.12563931738849,92.92289185689488,90.63989498715054,92.03883361816406,369800,0.0,0.0
2022-10-12 00:00:00-04:00,92.05826967741172,92.05826967741172,90.61074620317915,90.70790100097656,147400,0.0,0.0
2022-10-13 00:00:00-04:00,88.47347445229413,92.32056876441929,87.65742751269354,91.86396789550781,237000,0.0,0.0
2022-10-14 00:00:00-04:00,92.680016689808,93.18518751566972,91.42679546896231,92.369140625,319300,0.0,0.0
2022-10-17 00:00:00-04:00,93.28232712056783,94.59384258990315,93.28232712056783,94.5452651977539,344900,0.0,0.0
2022-10-18 00:00:00-04:00,96.42025075179662,97.12944074398997,95.30303729597603,96.44939422607422,281300,0.0,0.0
2022-10-19 00:00:00-04:00,95.89564883070547,96.38139318143047,94.80757881680805,95.40990447998047,359500,0.0,0.0
2022-10-20 00:00:00-04:00,95.28360389500314,95.88592208484869,92.70915761646472,93.3309097290039,185600,0.0,0.0
2022-10-21 00:00:00-04:00,92.83546869052161,95.1281828844244,91.83483639803897,94.73958587646484,176400,0.0,0.0
2022-10-24 00:00:00-04:00,95.10873124312313,95.98307242707695,94.4966887084207,95.09901428222656,158500,0.0,0.0
2022-10-25 00:00:00-04:00,94.08475314291458,96.97156541244834,93.59711578439695,96.75700378417969,292500,0.38,0.0
2022-10-26 00:00:00-04:00,97.38117205813707,98.55150609951095,96.51317821718118,96.63996124267578,271900,0.0,0.0
2022-10-27 00:00:00-04:00,96.6594709024473,98.15163992250055,96.42540707047455,96.63996124267578,216700,0.0,0.0
2022-10-28 00:00:00-04:00,99.42923377642339,101.54558512784975,96.76673851867538,98.62950897216797,445300,0.0,0.0
2022-10-31 00:00:00-04:00,97.48844874875874,98.11262390150411,96.64971199211561,96.69847869873047,372900,0.0,0.0
2022-11-01 00:00:00-04:00,97.13735900191311,97.13735900191311,94.48461061728605,94.81620788574219,301300,0.0,0.0
2022-11-02 00:00:00-04:00,94.78694026854464,95.3330916607,92.2317181509877,92.41702270507812,268400,0.0,0.0
2022-11-03 00:00:00-04:00,91.9488872434991,92.67058835738494,90.26166636799188,92.36825561523438,278300,0.0,0.0
2022-11-04 00:00:00-04:00,94.0554889664151,96.33762805982337,93.85068218424422,96.32787322998047,209100,0.0,0.0
2022-11-07 00:00:00-05:00,96.73749561582832,98.0346052547577,95.55741417366407,98.0053482055664,180700,0.0,0.0
2022-11-08 00:00:00-05:00,98.50272723298544,99.24393795696163,97.65423571577239,97.8687973022461,153100,0.0,0.0
2022-11-09 00:00:00-05:00,97.7517830749261,98.3857056554023,96.11332133794969,96.66922760009766,165300,0.0,0.0
2022-11-10 00:00:00-05:00,100.28748775829739,100.69710129983766,98.5417453513467,99.79985046386719,266000,0.0,0.0
2022-11-11 00:00:00-05:00,100.29723023611837,102.48185056554627,98.95135404805907,101.67237091064453,292600,0.0,0.0
2022-11-14 00:00:00-05:00,101.04819676306815,102.66714864755373,101.04819676306815,101.81866455078125,238400,0.0,0.0
2022-11-15 00:00:00-05:00,103.21331392675727,104.36413826602359,101.70163530254348,102.10150146484375,272500,0.0,0.0
2022-11-16 00:00:00-05:00,102.26729919618415,103.27183088339511,102.11125168244985,102.32581329345703,139300,0.0,0.0
2022-11-17 00:00:00-05:00,101.1457345899273,102.47210872926864,101.1457345899273,102.02348327636719,162700,0.0,0.0
2022-11-18 00:00:00-05:00,103.48639026348893,104.28611515224972,102.02347833716397,103.41812133789062,213200,0.0,0.0
2022-11-21 00:00:00-05:00,103.4766298155874,104.0617930661947,102.33556036079001,102.54036712646484,193300,0.0,0.0
2022-11-22 00:00:00-05:00,102.63790143094683,104.02279708012807,102.63790143094683,103.37911224365234,284000,0.0,0.0
2022-11-23 00:00:00-05:00,103.36934797323266,104.13981576436593,102.9694892749825,103.56440734863281,202100,0.0,0.0
2022-11-25 00:00:00-05:00,103.91551120590492,103.91551120590492,102.94998399828181,103.29133605957031,114700,0.0,0.0
2022-11-28 00:00:00-05:00,102.44284169904996,102.88171227913404,100.68734449720469,100.94091796875,208500,0.0,0.0
2022-11-29 00:00:00-05:00,100.45329009985048,101.52609073897939,100.38502117119923,100.75562286376953,181400,0.0,0.0
2022-11-30 00:00:00-05:00,100.34600536348798,103.55465976599352,98.99037423280163,103.5156478881836,297900,0.0,0.0
2022-12-01 00:00:00-05:00,104.13982118400281,105.11509578949563,103.87650031445183,104.44215393066406,156600,0.0,0.0
2022-12-02 00:00:00-05:00,103.6326756335968,105.86605524312506,103.47662813423473,105.37841796875,167400,0.0,0.0
2022-12-05 00:00:00-05:00,104.21784560514284,104.28611453033402,103.06702126566667,104.06179809570312,153800,0.0,0.0
2022-12-06 00:00:00-05:00,103.91550717161311,104.43240149703342,102.7646828950954,104.35437774658203,247800,0.0,0.0
2022-12-07 00:00:00-05:00,104.0910602658664,105.48570322721312,103.57415848292639,103.67169189453125,152800,0.0,0.0
2022-12-08 00:00:00-05:00,103.81797344078954,105.27113788560536,103.81797344078954,105.26138305664062,190800,0.0,0.0
2022-12-09 00:00:00-05:00,105.16385934923228,106.28542660013909,104.9883096278664,105.38816833496094,316700,0.0,0.0
2022-12-12 00:00:00-05:00,105.77827835254486,106.09036591549497,104.83226083464011,105.40767669677734,209100,0.0,0.0
2022-12-13 00:00:00-05:00,107.65080603927066,108.36275976042228,104.92004166507296,105.53446197509766,328400,0.0,0.0
2022-12-14 00:00:00-05:00,105.75878008773033,107.55328178157113,104.57869871369823,105.563720703125,302500,0.0,0.0
2022-12-15 00:00:00-05:00,105.03707103293462,105.86606039229649,104.5884456115796,104.98831176757812,230000,0.0,0.0
2022-12-16 00:00:00-05:00,104.46167349406672,105.58324088487514,103.75947452101255,104.78351593017578,540600,0.0,0.0
2022-12-19 00:00:00-05:00,104.66647151241814,105.68075800615152,103.16454771058724,103.63268280029297,269800,0.0,0.0
2022-12-20 00:00:00-05:00,103.79847841721525,105.4564422999126,103.6424309059824,104.47142028808594,193300,0.0,0.0
2022-12-21 00:00:00-05:00,105.31016168592593,107.90438842773438,104.91029550138958,107.90438842773438,388500,0.0,0.0
2022-12-22 00:00:00-05:00,106.79256922537186,108.06042918791105,104.80300813869356,105.87580871582031,213800,0.0,0.0
2022-12-23 00:00:00-05:00,106.44147874160574,107.47526752876155,105.67101084600183,107.28997039794922,161500,0.0,0.0
2022-12-27 00:00:00-05:00,107.18269024306241,108.27499313707996,106.9193619091436,108.12870788574219,101700,0.0,0.0
2022-12-28 00:00:00-05:00,108.31399440702319,109.1429837674232,106.31468594679085,106.4707260131836,162700,0.0,0.0
2022-12-29 00:00:00-05:00,107.20218285300226,108.42127610990254,106.67553367313076,108.05067443847656,128700,0.0,0.0
2022-12-30 00:00:00-05:00,107.76785122528503,108.00191506308684,106.3244414372041,107.26071166992188,172300,0.0,0.0
2023-01-03 00:00:00-05:00,107.8458705434527,108.32375302950469,106.74380544770912,107.53378295898438,239200,0.0,0.0
2023-01-04 00:00:00-05:00,108.50905441084987,109.43556230737798,107.58253907356702,108.47979736328125,217200,0.0,0.0
2023-01-05 00:00:00-05:00,107.90437633220454,110.23528192689936,106.42196228030721,109.34778594970703,310000,0.0,0.0
2023-01-06 00:00:00-05:00,110.57662775494772,111.57141198035454,109.95245262717476,111.23981475830078,181500,0.0,0.0
2023-01-09 00:00:00-05:00,111.79572267053489,112.81976395806996,110.47910347281449,110.52787017822266,161800,0.0,0.0
2023-01-10 00:00:00-05:00,110.39134052424086,111.51290042431526,110.1670240797729,110.62540435791016,163000,0.0,0.0
2023-01-11 00:00:00-05:00,110.77169872492544,111.60068070567976,110.64490825583303,110.6546630859375,141300,0.0,0.0
2023-01-12 00:00:00-05:00,110.87896910155528,110.97649507115837,109.62086400363823,110.69366455078125,179100,0.0,0.0
2023-01-13 00:00:00-05:00,110.41082785334501,111.48362834046898,110.41082785334501,111.15203857421875,177700,0.0,0.0
2023-01-17 00:00:00-05:00,111.35685038504113,111.69819499542407,110.04023120741864,111.23981475830078,204500,0.0,0.0
2023-01-18 00:00:00-05:00,111.65919649834017,111.76647730885077,109.15274085785262,109.20150756835938,118900,0.0,0.0
2023-01-19 00:00:00-05:00,108.8308893421614,109.6306216594884,107.60204870012052,109.22100067138672,177400,0.0,0.0
2023-01-20 00:00:00-05:00,109.67938137465651,110.48886108398438,108.92842320144285,110.48886108398438,180800,0.0,0.0
2023-01-23 00:00:00-05:00,110.4010737805488,110.917975531499,109.67937271201589,110.55712127685547,165500,0.0,0.0
2023-01-24 00:00:00-05:00,110.23527707279003,110.35231269308403,108.99668171454977,110.04997253417969,172600,0.0,0.0
2023-01-25 00:00:00-05:00,109.07470243873566,109.7281420442356,107.758083280303,109.29901885986328,181200,0.0,0.0
2023-01-26 00:00:00-05:00,109.72814501141445,110.09874667291383,109.05520317058878,110.001220703125,139000,0.0,0.0
2023-01-27 00:00:00-05:00,109.72815688465438,110.14752529680361,109.09422685130015,109.94271850585938,204300,0.0,0.0
2023-01-30 00:00:00-05:00,108.94793569036938,110.52788338081183,108.70411701571344,110.44985961914062,200200,0.0,0.0
2023-01-31 00:00:00-05:00,111.01551695530569,113.44394878889428,110.51812479250867,112.78076171875,630900,0.0,0.0
2023-02-01 00:00:00-05:00,111.98818275045524,115.52053241285088,111.92947573660169,114.57139587402344,190900,0.38,0.0
2023-02-02 00:00:00-05:00,114.57138127466314,115.79449367599972,114.07235678992349,114.77687072753906,271600,0.0,0.0
2023-02-03 00:00:00-05:00,114.08214072538685,114.08214072538685,112.731827269601,112.93730926513672,284100,0.0,0.0
2023-02-06 00:00:00-05:00,112.09582017872762,113.01560323463723,110.99991607666016,110.99991607666016,180400,0.0,0.0
2023-02-07 00:00:00-05:00,110.24646544851845,110.40302743035079,108.32862596278922,109.77679443359375,189100,0.0,0.0
2023-02-08 00:00:00-05:00,109.3168985454117,109.74743651284261,108.17206709414592,108.18184661865234,138800,0.0,0.0
2023-02-09 00:00:00-05:00,109.08206801886405,109.4049640438675,106.89024505321868,106.90003204345703,180200,0.0,0.0
2023-02-10 00:00:00-05:00,106.6554112429514,106.87068023990592,105.56928673307092,106.86089324951172,217900,0.0,0.0
2023-02-13 00:00:00-05:00,107.04681202406732,108.16229007405968,106.90003702479747,107.4382095336914,184900,0.0,0.0
2023-02-14 00:00:00-05:00,107.438211237858,108.80809134534121,107.30122322710967,107.3990707397461,122500,0.0,0.0
2023-02-15 00:00:00-05:00,106.4792815568927,108.02529754936728,106.23465905676518,108.01551055908203,155200,0.0,0.0
2023-02-16 00:00:00-05:00,106.38143267257288,109.1309871495159,105.85304718330413,108.3090591430664,372200,0.0,0.0
2023-02-17 00:00:00-05:00,112.52634981894491,118.67126581461193,111.56742633576187,114.18000030517578,590700,0.0,0.0
2023-02-21 00:00:00-05:00,113.99408350673167,113.99408350673167,110.67700304740676,112.60462951660156,463900,0.0,0.0
2023-02-22 00:00:00-05:00,112.14473062359853,113.5048310187556,111.96860213892352,112.25236511230469,257700,0.0,0.0
2023-02-23 00:00:00-05:00,112.34043243199615,113.07429991841427,110.64764894388522,112.09580993652344,196400,0.0,0.0
2023-02-24 00:00:00-05:00,111.3521634037615,112.56548889623957,110.5595814386297,112.3012924194336,215100,0.0,0.0
2023-02-27 00:00:00-05:00,113.34827783428503,114.72795231540253,113.02538180842211,114.18000030517578,215300,0.0,0.0
2023-02-28 00:00:00-05:00,114.1408565865931,115.56945104812323,114.08214211195074,114.2093505859375,261500,0.0,0.0
2023-03-01 00:00:00-05:00,113.68095999149226,115.08020088539392,113.68095999149226,114.93342590332031,194700,0.0,0.0
2023-03-02 00:00:00-05:00,114.89429825546645,116.44031430428454,114.7083902249889,116.02935028076172,205000,0.0,0.0
2023-03-03 00:00:00-05:00,116.41095563455673,117.66342163085938,115.31504415514881,117.66342163085938,225400,0.0,0.0
2023-03-06 00:00:00-05:00,117.54600638170025,117.60472086077684,114.07237120220516,114.3169937133789,265900,0.0,0.0
2023-03-07 00:00:00-05:00,114.19956377353569,114.81600976859379,113.72010577737939,114.1604232788086,247100,0.0,0.0
2023-03-08 00:00:00-05:00,113.90601405901887,114.18976956359856,112.69268119505315,112.8492431640625,281700,0.0,0.0
2023-03-09 00:00:00-05:00,113.46569894579096,113.90602392279584,112.0664579540653,112.10559844970703,189700,0.0,0.0
2023-03-10 00:00:00-05:00,112.17409308545392,112.17409308545392,109.86485608652902,110.13883209228516,201400,0.0,0.0
2023-03-13 00:00:00-04:00,109.05271206509913,110.67700911622507,109.05271206509913,109.56153106689453,245400,0.0,0.0
2023-03-14 00:00:00-04:00,111.42065752794538,112.7807580129058,111.04882655503299,112.60462951660156,261500,0.0,0.0
2023-03-15 00:00:00-04:00,111.0194680262325,111.30323100550942,107.80023521823885,108.98420715332031,256200,0.0,0.0
2023-03-16 00:00:00-04:00,107.84915661681708,110.84333328428991,107.58496016657807,110.25624084472656,209200,0.0,0.0
2023-03-17 00:00:00-04:00,110.49108261350074,110.49108261350074,107.58496628725061,108.37754821777344,393800,0.0,0.0
2023-03-20 00:00:00-04:00,109.39518705084062,111.0292635900135,109.39518705084062,110.3541030883789,146400,0.0,0.0
2023-03-21 00:00:00-04:00,111.6750680470849,111.7631360345813,110.0507784267172,110.58894348144531,141200,0.0,0.0
2023-03-22 00:00:00-04:00,110.3736751112363,111.76312912114271,109.7278681271668,109.83550262451172,176700,0.0,0.0
2023-03-23 00:00:00-04:00,109.73765315219785,111.00968565168763,108.42647269224416,109.31690216064453,156900,0.0,0.0
2023-03-24 00:00:00-04:00,108.63194870296891,110.55957505878878,107.65345877333736,110.54000854492188,148800,0.0,0.0
2023-03-27 00:00:00-04:00,111.01946323660796,112.36977661205927,111.01946323660796,111.52828216552734,170100,0.0,0.0
2023-03-28 00:00:00-04:00,111.32280122692488,112.64376866606705,110.70635522986831,112.54591369628906,189800,0.0,0.0
2023-03-29 00:00:00-04:00,113.20151127067999,113.4461337723694,112.68291276154427,113.37763977050781,138700,0.0,0.0
2023-03-30 00:00:00-04:00,113.77881321274664,114.25827121069774,112.57527472284893,113.4559097290039,148000,0.0,0.0
2023-03-31 00:00:00-04:00,114.01365914216875,115.72601675671618,114.01365914216875,115.64774322509766,206300,0.0,0.0
2023-04-03 00:00:00-04:00,115.39331778179478,116.2543862329776,115.11934179574959,116.09783172607422,151100,0.0,0.0
2023-04-04 00:00:00-04:00,115.95106450381833,115.95106450381833,114.2680605165745,115.138916015625,183100,0.0,0.0
2023-04-05 00:00:00-04:00,115.20741233178677,116.63600685854641,114.70838779890055,116.51859283447266,249700,0.0,0.0
2023-04-06 00:00:00-04:00,116.77298416349359,116.77298416349359,115.39331725004219,116.49900817871094,159300,0.0,0.0
2023-04-10 00:00:00-04:00,115.83364062516607,116.65557608662692,115.43246361711488,116.53815460205078,174600,0.0,0.0
2023-04-11 00:00:00-04:00,116.63599480985275,117.40900273805963,116.27395831930913,116.48922729492188,121800,0.0,0.0
2023-04-12 00:00:00-04:00,116.76321254687886,117.09589556084956,115.64773455312766,115.84342956542969,134300,0.0,0.0
2023-04-13 00:00:00-04:00,115.80428084065862,117.41879070592218,115.3541763721202,117.20352172851562,110700,0.0,0.0
2023-04-14 00:00:00-04:00,116.61644270032957,117.47751124385101,115.76515368215436,116.6360092163086,233600,0.0,0.0
2023-04-17 00:00:00-04:00,116.92955774982464,117.2328872680664,115.98042123305805,117.2328872680664,122400,0.0,0.0
2023-04-18 00:00:00-04:00,117.15460898417136,117.15460898417136,115.51074551363084,116.03912353515625,261700,0.0,0.0
2023-04-19 00:00:00-04:00,115.82386452817116,116.86106154412121,115.52052755036053,116.15654754638672,252900,0.0,0.0
2023-04-20 00:00:00-04:00,116.44029676633656,117.22309166348492,115.97061833499046,116.46965026855469,296800,0.0,0.0
2023-04-21 00:00:00-04:00,116.7534299567376,118.46578750741529,116.24461842640514,117.99610900878906,361500,0.0,0.0
2023-04-24 00:00:00-04:00,118.26029276247478,118.80824473079451,117.1643813605496,117.81018829345703,229600,0.0,0.0
2023-04-25 00:00:00-04:00,116.86105855385608,117.3698700584857,115.34439609947044,115.53031158447266,167500,0.0,0.0
2023-04-26 00:00:00-04:00,114.49311523060877,115.0508542234253,113.12322775860564,113.26021575927734,247200,0.0,0.0
2023-04-27 00:00:00-04:00,113.260214811602,114.07236328399316,112.16430335011202,114.06257629394531,361900,0.0,0.0
2023-04-28 00:00:00-04:00,114.00387354988807,116.99805060195773,114.00387354988807,115.96085357666016,586700,0.0,0.0
2023-05-01 00:00:00-04:00,116.84148544332882,119.86501572606133,116.84148544332882,119.02351379394531,283100,0.0,0.0
2023-05-02 00:00:00-04:00,118.14287552500228,118.27986352199954,113.24064620684463,117.88847351074219,359200,0.0,0.0
2023-05-03 00:00:00-04:00,118.25165760847847,118.78171490676155,117.53509658795517,117.69215393066406,294300,0.38,0.0
2023-05-04 00:00:00-04:00,117.73142656290354,117.93755872305542,116.20996527604514,116.61241912841797,192500,0.0,0.0
2023-05-05 00:00:00-04:00,116.79891023415145,119.63569303395245,116.79891023415145,119.4590072631836,171100,0.0,0.0
2023-05-08 00:00:00-04:00,119.6160668606866,120.08722393233099,118.438166692669,119.2626953125,200400,0.0,0.0
2023-05-09 00:00:00-04:00,118.64429522057912,118.80134507669057,117.48602351224487,118.35963439941406,185600,0.0,0.0
2023-05-10 00:00:00-04:00,118.8602299373744,119.33139445220877,116.31792611733283,117.41730499267578,227200,0.0,0.0
2023-05-11 00:00:00-04:00,117.27990171569114,117.6234553271096,116.76947278823481,117.08358001708984,203900,0.0,0.0
2023-05-12 00:00:00-04:00,117.47621195875408,118.64430168704287,117.15228678367968,118.5657730102539,168400,0.0,0.0
2023-05-15 00:00:00-04:00,118.36944486679788,118.84060941294503,117.82957709333841,118.35963439941406,148300,0.0,0.0
2023-05-16 00:00:00-04:00,118.35962920406743,118.35962920406743,116.03326793322339,116.14124298095703,180800,0.0,0.0
2023-05-17 00:00:00-04:00,116.63204222599711,116.84799233312319,115.29708473549634,116.77928161621094,168600,0.0,0.0
2023-05-18 00:00:00-04:00,115.99401185542538,116.857812298782,115.61119392763109,116.79891204833984,94000,0.0,0.0
2023-05-19 00:00:00-04:00,117.67252566837792,118.05534360498534,116.41609680065028,116.8970718383789,156900,0.0,0.0
2023-05-22 00:00:00-04:00,116.48479972892893,117.31914626601181,115.71916390692569,115.95474243164062,229600,0.0,0.0
2023-05-23 00:00:00-04:00,115.23819743180502,116.26885823429332,114.7572223906438,115.02224731445312,155400,0.0,0.0
2023-05-24 00:00:00-04:00,115.0320502943602,115.0320502943602,112.91182122430791,113.00016784667969,297800,0.0,0.0
2023-05-25 00:00:00-04:00,112.1854616347367,113.15722965008982,111.35111505634639,111.44927215576172,196800,0.0,0.0
2023-05-26 00:00:00-04:00,110.90940001682789,112.38177901647904,110.87013567816837,112.057861328125,210200,0.0,0.0
2023-05-30 00:00:00-04:00,112.10692956090803,112.60754048832791,110.92902942582099,111.2725830078125,136100,0.0,0.0
2023-05-31 00:00:00-04:00,111.35112083423996,111.46890636408747,109.63334529416476,110.41860961914062,360800,0.0,0.0
2023-06-01 00:00:00-04:00,110.74252803336906,111.4296352118274,109.97689218054215,110.86032104492188,170700,0.0,0.0
2023-06-02 00:00:00-04:00,111.91062193037851,112.63699347331249,111.56706832824129,112.057861328125,353000,0.0,0.0
2023-06-05 00:00:00-04:00,111.70449030239857,112.12657258386996,110.80142548673189,110.97811126708984,237400,0.0,0.0
2023-06-06 00:00:00-04:00,110.9584835194059,112.54865555233378,110.9584835194059,112.21491241455078,266900,0.0,0.0
2023-06-07 00:00:00-04:00,112.25416759300819,113.56948914499125,111.9596888183431,113.28483581542969,264100,0.0,0.0
2023-06-08 00:00:00-04:00,113.43207639506426,113.85415867697041,112.6762584659754,113.07870483398438,270500,0.0,0.0
2023-06-09 00:00:00-04:00,112.9412812011952,113.441892151164,112.28362038763048,112.69588470458984,295000,0.0,0.0
2023-06-12 00:00:00-04:00,112.5682878201571,113.46152722592315,112.19528781946131,113.26521301269531,353000,0.0,0.0
2023-06-13 00:00:00-04:00,113.57930154712804,114.24678024667686,112.6467979544655,113.08850860595703,340600,0.0,0.0
2023-06-14 00:00:00-04:00,113.48114700172985,113.8247005704733,112.24434666534736,113.03943634033203,225200,0.0,0.0
2023-06-15 00:00:00-04:00,112.8823871503775,114.25660901346778,112.8333048560538,113.91305541992188,362600,0.0,0.0
2023-06-16 00:00:00-04:00,113.52041136526161,115.05168297999425,113.23575055425765,114.99279022216797,975300,0.0,0.0
2023-06-20 00:00:00-04:00,114.72776130191517,114.79647201775808,113.57930755615234,113.57930755615234,297000,0.0,0.0
2023-06-21 00:00:00-04:00,113.01980890507689,113.13760191844044,111.3314798247326,111.52780151367188,317800,0.0,0.0
2023-06-22 00:00:00-04:00,111.8517179195205,111.95969297497932,110.28118187044677,111.94988250732422,266200,0.0,0.0
2023-06-23 00:00:00-04:00,110.82106057375844,111.63577874871399,110.0063423988029,110.75234985351562,366000,0.0,0.0
2023-06-26 00:00:00-04:00,110.97809201974137,112.26397455501701,110.97809201974137,111.5179672241211,142300,0.0,0.0
2023-06-27 00:00:00-04:00,111.73394059924614,112.70570868081026,111.1449904737196,112.60755157470703,218300,0.0,0.0
2023-06-28 00:00:00-04:00,112.69588087233157,112.69588087233157,110.40879129331206,111.42963409423828,204800,0.0,0.0
2023-06-29 00:00:00-04:00,111.34130323371589,113.2357645635369,110.4775102268038,112.66644287109375,225900,0.0,0.0
2023-06-30 00:00:00-04:00,113.09832525349637,114.13880388029408,112.72531782962105,113.7265396118164,279800,0.0,0.0
2023-07-03 00:00:00-04:00,113.28484583596284,114.86519243380789,113.28484583596284,114.39403533935547,85700,0.0,0.0
2023-07-05 00:00:00-04:00,113.49097172501563,113.49097172501563,110.68363527204593,110.86032104492188,384200,0.0,0.0
2023-07-06 00:00:00-04:00,110.18302145320327,110.89958248249435,109.57443547611915,110.39897155761719,277700,0.0,0.0
2023-07-07 00:00:00-04:00,110.57566419205385,113.20631496671577,110.51676393970676,111.69467163085938,333400,0.0,0.0
2023-07-10 00:00:00-04:00,111.22350117784158,113.17686260297434,110.929029887298,112.36214447021484,248000,0.0,0.0
2023-07-11 00:00:00-04:00,112.20508796771925,113.4320704098084,111.28240226372463,113.38299560546875,226700,0.0,0.0
2023-07-12 00:00:00-04:00,114.43328809873285,115.38542763725938,113.63819841282893,114.71794891357422,199400,0.0,0.0
2023-07-13 00:00:00-04:00,114.69831984636394,115.20874874788771,114.41365901453466,114.85537719726562,190200,0.0,0.0
2023-07-14 00:00:00-04:00,115.52284962915222,116.65166744903586,114.55107417374965,116.17069244384766,271600,0.0,0.0
2023-07-17 00:00:00-04:00,116.21977744333584,117.33878482207749,115.00261296782688,117.0639419555664,234200,0.0,0.0
2023-07-18 00:00:00-04:00,116.81853446806556,118.1534918273225,116.51423776116496,116.88724517822266,189100,0.0,0.0
2023-07-19 00:00:00-04:00,116.56333073191328,117.21118104897205,116.13143052054077,116.91670227050781,247200,0.0,0.0
2023-07-20 00:00:00-04:00,117.57436296115227,118.00626317218011,116.67130569164537,117.13265228271484,175800,0.0,0.0
2023-07-21 00:00:00-04:00,117.44675115215381,117.83938699896758,116.68111536976521,117.63324737548828,184300,0.0,0.0
2023-07-24 00:00:00-04:00,117.80994478383553,118.27129138780221,116.52406956002712,117.5252914428711,163400,0.0,0.0
2023-07-25 00:00:00-04:00,117.4762185701087,118.88970487623143,117.10321856772953,118.34001159667969,250700,0.0,0.0
2023-07-26 00:00:00-04:00,118.34985607308383,118.58623849459941,117.03003856449325,118.14301300048828,306900,0.41,0.0
2023-07-27 00:00:00-04:00,118.2513460117768,118.96050072783213,116.9512315371624,117.34520721435547,407800,0.0,0.0
2023-07-28 00:00:00-04:00,120.64475358705498,125.07696356835932,120.04394229954343,121.91532135009766,513000,0.0,0.0
2023-07-31 00:00:00-04:00,121.65922899664189,122.06305615640262,119.00975762578362,119.63026428222656,746500,0.0,0.0
2023-08-01 00:00:00-04:00,119.41357765465155,120.65459848598519,118.93096136475683,120.59550476074219,365300,0.0,0.0
2023-08-02 00:00:00-04:00,119.61056990014845,120.48716189674361,118.17256496736918,120.39851379394531,329200,0.0,0.0
2023-08-03 00:00:00-04:00,119.68936222304521,120.88114082631289,118.90141830822384,118.99005889892578,195900,0.0,0.0
2023-08-04 00:00:00-04:00,118.80292880189697,120.29017607268158,118.66503842598928,118.82262420654297,116500,0.0,0.0
2023-08-07 00:00:00-04:00,118.91126051156141,119.82725078315647,118.6945735096523,119.46282196044922,140300,0.0,0.0
2023-08-08 00:00:00-04:00,118.27105347378337,119.57116799836159,117.90662464334399,119.2953872680664,270100,0.0,0.0
2023-08-09 00:00:00-04:00,119.29538666044495,121.53118686777412,118.70441936772382,119.99468994140625,287500,0.0,0.0
2023-08-10 00:00:00-04:00,119.96514930096563,121.70848186440932,119.96514930096563,120.388671875,216000,0.0,0.0
2023-08-11 00:00:00-04:00,119.67951193116477,121.36375069533648,119.67951193116477,120.762939453125,226500,0.0,0.0
2023-08-14 00:00:00-04:00,120.19168505519164,121.13722229003906,119.74846705945322,121.13722229003906,145700,0.0,0.0
2023-08-15 00:00:00-04:00,120.7826366360751,121.07812028935527,120.14243457807048,120.25077056884766,249000,0.0,0.0
2023-08-16 00:00:00-04:00,119.89620845848317,121.30466660320468,119.65981851478783,119.70906829833984,291100,0.0,0.0
2023-08-17 00:00:00-04:00,120.12272756896493,120.81218689831638,119.78785312015,119.80754852294922,186600,0.0,0.0
2023-08-18 00:00:00-04:00,119.55147817269936,121.56074766061812,119.55147817269936,121.43270874023438,443100,0.0,0.0
2023-08-21 00:00:00-04:00,121.29481465792134,122.58507782562879,121.20616655077505,121.91532135009766,358800,0.0,0.0
2023-08-22 00:00:00-04:00,122.00396283639077,123.81624054567901,120.9106838325083,121.09781646728516,429600,0.0,0.0
2023-08-23 00:00:00-04:00,121.20615845113085,121.698626193922,120.46745683694412,121.53118896484375,305000,0.0,0.0
2023-08-24 00:00:00-04:00,121.62968254967774,123.57000668314262,120.74323909854385,123.22528076171875,278400,0.0,0.0
2023-08-25 00:00:00-04:00,123.67835859597204,125.75657323927061,123.09725021956615,125.61868286132812,493000,0.0,0.0
2023-08-28 00:00:00-04:00,125.707311177898,127.62793985073722,125.707311177898,127.46050262451172,331900,0.0,0.0
2023-08-29 00:00:00-04:00,127.84462418454724,129.97208835964057,127.4506409879065,129.83419799804688,472400,0.0,0.0
2023-08-30 00:00:00-04:00,130.37589091978845,131.25248280332488,129.71598602129887,130.8880615234375,298900,0.0,0.0
2023-08-31 00:00:00-04:00,131.2722040887197,131.71542206418476,130.24787776700208,130.56304931640625,305800,0.0,0.0
2023-09-01 00:00:00-04:00,131.09492494428994,131.7745178351225,130.52366053389966,130.55320739746094,252000,0.0,0.0
2023-09-05 00:00:00-04:00,129.69630982253585,129.99179350200635,125.44139593650316,125.64823150634766,325300,0.0,0.0
2023-09-06 00:00:00-04:00,125.8649151442291,126.08159465361133,124.29886370837676,124.50570678710938,291100,0.0,0.0
2023-09-07 00:00:00-04:00,124.38750981983786,125.2542503868458,123.25483244984741,123.47151947021484,328600,0.0,0.0
2023-09-08 00:00:00-04:00,123.61926334777158,124.76178468160838,123.23513908329988,123.42227172851562,238800,0.0,0.0
2023-09-11 00:00:00-04:00,125.07696150990851,126.00280331761621,124.50570461048845,125.09666442871094,333500,0.0,0.0
2023-09-12 00:00:00-04:00,124.21021500686247,125.37243918341215,123.53060711543807,124.62388610839844,258000,0.0,0.0
2023-09-13 00:00:00-04:00,123.88518867479367,124.68298404247041,123.2252836789509,123.48136901855469,279300,0.0,0.0
2023-09-14 00:00:00-04:00,124.11172409736754,125.38229179040027,124.11172409736754,124.85042572021484,217900,0.0,0.0
2023-09-15 00:00:00-04:00,124.58448228174343,125.28378554566477,123.28436779546722,124.03292083740234,589200,0.0,0.0
2023-09-18 00:00:00-04:00,124.45645397713974,124.45645397713974,123.03814441153213,123.74729919433594,175100,0.0,0.0
2023-09-19 00:00:00-04:00,123.79655204787096,123.79655204787096,122.19110228739817,123.42227172851562,218600,0.0,0.0
2023-09-20 00:00:00-04:00,123.94428113776449,124.20036647475735,122.68356488558673,122.75251007080078,206200,0.0,0.0
2023-09-21 00:00:00-04:00,122.45702914619172,122.47672454928626,120.34926783539315,120.37881469726562,335700,0.0,0.0
2023-09-22 00:00:00-04:00,120.4871679803028,121.0485809448334,120.27048095636783,120.83189392089844,341200,0.0,0.0
2023-09-25 00:00:00-04:00,120.15228867269298,122.26005020172887,119.64012548013092,122.1714096069336,258800,0.0,0.0
2023-09-26 00:00:00-04:00,121.66908429375634,122.34869221115255,121.37360814470796,121.73802947998047,547000,0.0,0.0
2023-09-27 00:00:00-04:00,122.17140377584057,122.57522343473762,121.01903101173075,121.65923309326172,362400,0.0,0.0
2023-09-28 00:00:00-04:00,121.99411766733463,123.74730174176703,121.4031578409867,123.57986450195312,219300,0.0,0.0
2023-09-29 00:00:00-04:00,124.58449508840795,124.91937708151146,122.91010766627605,123.15634155273438,330900,0.0,0.0
2023-10-02 00:00:00-04:00,122.65402041708958,123.58971367978923,122.12215432885712,123.16619110107422,244100,0.0,0.0
2023-10-03 00:00:00-04:00,122.15169752451257,123.42226522250525,120.6447474103352,121.01902770996094,236300,0.0,0.0
2023-10-04 00:00:00-04:00,121.68878693940901,122.78206597169766,120.48716439837379,122.3585433959961,208200,0.0,0.0
2023-10-05 00:00:00-04:00,122.09260826611496,123.04799693932927,120.95008695070266,121.88577270507812,466700,0.0,0.0
2023-10-06 00:00:00-04:00,121.74788423457618,124.78148753947032,121.53119721073205,124.50570678710938,491700,0.0,0.0
2023-10-09 00:00:00-04:00,123.92458710028268,125.30349833422895,123.79654818760531,125.02771759033203,275700,0.0,0.0
2023-10-10 00:00:00-04:00,125.32318748206251,126.67255178529572,124.60418879486171,124.63373565673828,322000,0.0,0.0
2023-10-11 00:00:00-04:00,125.60882568359375,125.77626291855002,124.74208513105981,125.60882568359375,212900,0.0,0.0
2023-10-12 00:00:00-04:00,125.30349604416907,125.48078473550004,123.17603174819745,123.53060913085938,189300,0.0,0.0
2023-10-13 00:00:00-04:00,124.10187352296693,124.761778507277,123.51091372336892,124.07232666015625,324900,0.0,0.0
2023-10-16 00:00:00-04:00,125.44137989646963,125.51032507760185,124.26930430276053,124.8011703491211,275200,0.0,0.0
2023-10-17 00:00:00-04:00,124.11172912949101,126.4066232198593,124.11172912949101,125.55958557128906,314400,0.0,0.0
2023-10-18 00:00:00-04:00,124.95878055658882,125.74672451706186,124.3776646530701,124.87013244628906,287300,0.0,0.0
2023-10-19 00:00:00-04:00,124.18067105542181,125.54973081483128,123.50106314806689,123.83594512939453,443900,0.0,0.0
2023-10-20 00:00:00-04:00,124.03292439990166,124.5746419157682,120.09318250839613,120.37881469726562,446500,0.0,0.0
2023-10-23 00:00:00-04:00,119.88634184328839,121.30465126831521,119.38402266951456,119.6696548461914,379000,0.0,0.0
2023-10-24 00:00:00-04:00,120.2901701673284,121.90546378962974,119.88635051898383,121.48194122314453,312100,0.0,0.0
2023-10-25 00:00:00-04:00,120.98783390708984,122.32193004982163,120.45419394209233,120.92854309082031,431300,0.41,0.0
2023-10-26 00:00:00-04:00,119.83162224324822,123.9129702724296,119.83162224324822,121.97605895996094,576000,0.0,0.0
2023-10-27 00:00:00-04:00,122.01558593957586,122.38122269807654,118.94221959153327,119.74267578125,364000,0.0,0.0
2023-10-30 00:00:00-04:00,120.48384087248407,120.87913057816436,119.42644524501559,120.73089599609375,283100,0.0,0.0
2023-10-31 00:00:00-04:00,121.06689025210943,121.44241131139812,120.39490004002396,120.8297119140625,422900,0.0,0.0
2023-11-01 00:00:00-04:00,120.67160074903458,121.97605145222434,120.17749051995476,121.48194122314453,360500,0.0,0.0
2023-11-02 00:00:00-04:00,122.26264837035367,122.82593378558079,121.53136727012583,122.12429809570312,384300,0.0,0.0
2023-11-03 00:00:00-04:00,122.96428251310115,124.48614305463377,122.96428251310115,123.87344360351562,278000,0.0,0.0
2023-11-06 00:00:00-05:00,123.79437631027992,124.24896436622109,123.28050497766334,123.71532440185547,173500,0.0,0.0
2023-11-07 00:00:00-05:00,123.15203798549139,123.51767473498641,122.70733424919426,123.0828628540039,205000,0.0,0.0
2023-11-08 00:00:00-05:00,123.40897795368349,124.01179308445136,122.94452063446629,123.64615631103516,175800,0.0,0.0
2023-11-09 00:00:00-05:00,124.20943327907183,124.20943327907183,122.60851340354475,122.92474365234375,118600,0.0,0.0
2023-11-10 00:00:00-05:00,122.77652022014401,124.308265103415,122.43064453217058,124.23908996582031,195600,0.0,0.0
2023-11-13 00:00:00-05:00,123.91297299029823,124.00191675951038,122.90499135621492,123.06310272216797,183100,0.0,0.0
2023-11-14 00:00:00-05:00,124.46637361252297,126.35387845706128,123.83391307203956,126.343994140625,267400,0.0,0.0
2023-11-15 00:00:00-05:00,126.3143475614149,127.28280699604653,125.8498827070265,126.20564270019531,388600,0.0,0.0
2023-11-16 00:00:00-05:00,126.14635167264116,127.1049192498191,125.34588791957243,126.04753112792969,217000,0.0,0.0
2023-11-17 00:00:00-05:00,127.04562613275004,127.55950501919288,126.10681966568688,126.42304992675781,162700,0.0,0.0
2023-11-20 00:00:00-05:00,125.94870215932512,126.14635078688451,124.940720547107,125.82023620605469,213900,0.0,0.0
2023-11-21 00:00:00-05:00,125.95859364165075,126.78870284557851,125.7016541809678,126.4032974243164,160600,0.0,0.0
2023-11-22 00:00:00-05:00,126.93692238821531,127.67808777593831,125.85976564369618,127.0555191040039,174800,0.0,0.0
2023-11-24 00:00:00-05:00,127.45081068313257,127.45081068313257,126.59106359523292,127.0159912109375,65900,0.0,0.0
2023-11-27 00:00:00-05:00,126.31433827436793,126.7886874102254,125.35576322655868,125.50399780273438,367500,0.0,0.0
2023-11-28 00:00:00-05:00,125.504004627321,125.51388894347652,124.01178954785065,124.13037872314453,218000,0.0,0.0
2023-11-29 00:00:00-05:00,124.16002759218779,124.91107731093103,123.44850759964413,123.8932113647461,331800,0.0,0.0
2023-11-30 00:00:00-05:00,123.97226185014588,125.63247263378987,123.33980131728381,125.39530181884766,301000,0.0,0.0
2023-12-01 00:00:00-05:00,124.9308309510971,127.0258535380185,124.9308309510971,126.59104919433594,218300,0.0,0.0
2023-12-04 00:00:00-05:00,125.94869726613702,127.36186039483064,125.39529620951916,126.90727233886719,192000,0.0,0.0
2023-12-05 00:00:00-05:00,126.7392779421962,127.17409737078592,124.39719266482523,124.50589752197266,178000,0.0,0.0
2023-12-06 00:00:00-05:00,124.90118504227478,125.80046929212959,124.39719048972401,124.88142395019531,179500,0.0,0.0
2023-12-07 00:00:00-05:00,124.75295250697287,125.61270704722888,124.50589738455122,125.00000762939453,254000,0.0,0.0
2023-12-08 00:00:00-05:00,124.87154541234229,125.99811620109602,124.14026433918309,125.82023620605469,265800,0.0,0.0
2023-12-11 00:00:00-05:00,125.76095292249371,126.1760037559498,124.85178426029628,126.06729888916016,338000,0.0,0.0
2023-12-12 00:00:00-05:00,126.1463510868967,126.5910548453198,125.1877759746455,125.97835540771484,210300,0.0,0.0
2023-12-13 00:00:00-05:00,125.68189215534058,127.47057651051817,125.68189215534058,127.07527923583984,425000,0.0,0.0
2023-12-14 00:00:00-05:00,127.55951044773897,128.47854832161434,125.38542071327007,125.89929962158203,412900,0.0,0.0
2023-12-15 00:00:00-05:00,125.66212560679767,127.06539694313376,124.48614076913015,124.49602508544922,713000,0.0,0.0
2023-12-18 00:00:00-05:00,125.21742212064312,125.71153238433733,124.39719727342491,125.55342102050781,240500,0.0,0.0
2023-12-19 00:00:00-05:00,126.20564229345229,126.62070064382776,124.5454315105232,124.74308013916016,659100,0.0,0.0
2023-12-20 00:00:00-05:00,124.53554704982824,125.44471566145563,123.9821459693349,124.09085083007812,346400,0.0,0.0
2023-12-21 00:00:00-05:00,124.75294875759722,124.75294875759722,123.37932292137825,124.42684173583984,421900,0.0,0.0
2023-12-22 00:00:00-05:00,124.91107389434772,125.54353441719309,124.63437335804339,124.78260040283203,312200,0.0,0.0
2023-12-26 00:00:00-05:00,124.65413953686287,125.37554385553965,124.1106152187143,124.34779357910156,274700,0.0,0.0
2023-12-27 00:00:00-05:00,124.63436937582038,124.98024503514964,123.55720513445337,123.80426025390625,283100,0.0,0.0
2023-12-28 00:00:00-05:00,123.5078022894211,124.31814280362717,122.93463258584202,123.72520446777344,343600,0.0,0.0
2023-12-29 00:00:00-05:00,123.71533193650929,123.8833276189881,122.10452762943483,122.16382598876953,313500,0.0,0.0
2024-01-02 00:00:00-05:00,121.16572465711982,122.63817119494288,120.84949437638886,121.43254089355469,313100,0.0,0.0
2024-01-03 00:00:00-05:00,123.67579826718928,125.76094414531796,121.69935724826344,123.8833236694336,531700,0.0,0.0
2024-01-04 00:00:00-05:00,123.70544279171902,124.43672385242652,122.66780824839185,122.75675201416016,353300,0.0,0.0
2024-01-05 00:00:00-05:00,122.32193344846323,122.90498746956777,121.54123834128632,122.73698425292969,423000,0.0,0.0
2024-01-08 00:00:00-05:00,122.60851522989702,123.68567947872636,120.92854342178856,122.88521575927734,352400,0.0,0.0
2024-01-09 00:00:00-05:00,122.25275758637918,123.17180295623872,121.52147652483717,123.16191864013672,250300,0.0,0.0
2024-01-10 00:00:00-05:00,122.99392013349345,123.94261089030212,122.76663364504678,123.71532440185547,279600,0.0,0.0
2024-01-11 00:00:00-05:00,123.90308518645588,125.47435972243426,123.46827328767989,125.34588623046875,323100,0.0,0.0
2024-01-12 00:00:00-05:00,126.38352064693153,126.46258009735882,124.43672503242341,124.94071960449219,231700,0.0,0.0
2024-01-16 00:00:00-05:00,124.39720061596798,125.32613034932112,124.03156383630517,125.31624603271484,257500,0.0,0.0
2024-01-17 00:00:00-05:00,124.45648936589546,125.77081687111075,124.4070753262042,125.1976547241211,336900,0.0,0.0
2024-01-18 00:00:00-05:00,125.82023625809498,128.4785443290313,124.82213142219884,127.6187973022461,444200,0.0,0.0
2024-01-19 00:00:00-05:00,128.18209008005715,129.91147598730586,127.02585880393394,129.25924682617188,418000,0.0,0.0
2024-01-22 00:00:00-05:00,129.35806092328045,130.25734522161773,129.02206956314845,129.6446533203125,266200,0.0,0.0
2024-01-23 00:00:00-05:00,130.24746945845396,130.296883500987,128.79478406646476,130.27711486816406,217800,0.0,0.0
2024-01-24 00:00:00-05:00,130.5636832420236,130.73167891188575,129.00229309506915,129.23947143554688,294400,0.0,0.0
2024-01-25 00:00:00-05:00,130.47474445843625,130.82062764663073,128.84418675191344,129.7039337158203,332300,0.0,0.0
2024-01-26 00:00:00-05:00,130.12886723227166,131.02815149954128,129.85216670065762,130.1486358642578,219900,0.0,0.0
2024-01-29 00:00:00-05:00,129.50629241175295,131.02814526319688,128.95289137486424,130.69215393066406,187800,0.0,0.0
2024-01-30 00:00:00-05:00,130.47474422630816,131.5222554859971,130.0794620796869,130.69215393066406,228400,0.0,0.0
2024-01-31 00:00:00-05:00,131.2175488168734,131.6140753923471,128.03550435063644,128.74923706054688,537500,0.41,0.0
2024-02-01 00:00:00-05:00,129.32418547298803,129.9685203411413,128.48157975991825,129.36383056640625,298800,0.0,0.0
2024-02-02 00:00:00-05:00,128.82853516166915,129.57200543236544,127.56958793469315,128.96731567382812,344800,0.0,0.0
2024-02-05 00:00:00-05:00,128.00575671614538,130.3055501698844,126.93515773518477,129.51251220703125,319500,0.0,0.0
2024-02-06 00:00:00-05:00,129.34399233153823,130.2559806822857,128.1742730749081,129.98834228515625,369700,0.0,0.0
2024-02-07 00:00:00-05:00,130.26590766193826,131.267108845258,128.24366006025903,130.6525115966797,393000,0.0,0.0
2024-02-08 00:00:00-05:00,130.49390979357565,133.6660467963085,130.39477436732616,130.9697265625,620700,0.0,0.0
2024-02-09 00:00:00-05:00,130.95981501793833,137.99800653748164,130.3650327307306,137.75018310546875,650900,0.0,0.0
2024-02-12 00:00:00-05:00,137.94843452529844,139.2470268484113,136.31279084943992,136.41192626953125,491300,0.0,0.0
2024-02-13 00:00:00-05:00,135.49994444056586,136.13437183240478,133.80482548099658,134.74655151367188,275900,0.0,0.0
2024-02-14 00:00:00-05:00,135.07367289511177,136.26323742510704,133.99316640210938,135.9757537841797,335000,0.0,0.0
2024-02-15 00:00:00-05:00,135.97576415206808,136.61019155766678,133.39840943442317,133.8643035888672,471400,0.0,0.0
2024-02-16 00:00:00-05:00,134.19142649181865,136.79853382457387,133.8642977479947,136.30288696289062,453900,0.0,0.0
2024-02-20 00:00:00-05:00,135.94601402085385,138.91989504664994,135.75766580240287,138.47381591796875,373000,0.0,0.0
2024-02-21 00:00:00-05:00,137.86913947554837,138.8901708495271,137.77992666639122,138.7811279296875,276300,0.0,0.0
2024-02-22 00:00:00-05:00,139.24703328340902,141.180053056989,138.8505218366026,140.2383270263672,295700,0.0,0.0
2024-02-23 00:00:00-05:00,140.73396219891302,140.81326750687023,139.37589472425526,140.1292724609375,190300,0.0,0.0
2024-02-26 00:00:00-05:00,140.2680761335312,140.8231982549688,139.5741734817342,140.68441772460938,199200,0.0,0.0
2024-02-27 00:00:00-05:00,140.68439280321402,140.9421237065279,138.58285510834838,139.08840942382812,244600,0.0,0.0
2024-02-28 00:00:00-05:00,138.43416809390393,140.01033667439933,138.11696195491015,139.18756103515625,189600,0.0,0.0
2024-02-29 00:00:00-05:00,139.40565497538333,140.396948797008,138.6126168928949,139.2371368408203,250600,0.0,0.0
2024-03-01 00:00:00-05:00,138.6621693304686,139.5642351130347,138.3449480820494,139.06858825683594,151400,0.0,0.0
2024-03-04 00:00:00-05:00,139.46512794883685,140.88267083058346,139.33625491378967,140.7240753173828,260300,0.0,0.0
2024-03-05 00:00:00-05:00,141.03136662496232,141.96318517392672,140.50598214538743,141.27919006347656,190200,0.0,0.0
2024-03-06 00:00:00-05:00,141.68560621173435,142.38943141864434,141.2395270563974,141.82440185546875,184000,0.0,0.0
2024-03-07 00:00:00-05:00,143.2419369981293,143.87636434934632,142.58767953801575,143.390625,250100,0.0,0.0
2024-03-08 00:00:00-05:00,143.45011379645075,143.80698012307482,141.7252573634442,141.84420776367188,185200,0.0,0.0
2024-03-11 00:00:00-04:00,141.54683652531014,142.13171136913695,140.74389095907273,141.49728393554688,226700,0.0,0.0
2024-03-12 00:00:00-04:00,141.5567547257704,141.60632243992973,140.24823967648902,141.17015075683594,242200,0.0,0.0
2024-03-13 00:00:00-04:00,141.75499169716946,141.75499169716946,139.70300658487778,139.93101501464844,336800,0.0,0.0
2024-03-14 00:00:00-04:00,140.12929766345746,140.38702861621618,139.1380038246175,139.70303344726562,235200,0.0,0.0
2024-03-15 00:00:00-04:00,138.82076653015324,141.1701429429702,138.5233905135426,139.7724151611328,599500,0.0,0.0
2024-03-18 00:00:00-04:00,139.70303582826082,140.06982484052455,137.72044811679112,138.04757690429688,299700,0.0,0.0
2024-03-19 00:00:00-04:00,137.67089007869433,139.09835559463502,137.67089007869433,138.29539489746094,253000,0.0,0.0
2024-03-20 00:00:00-04:00,138.41436752395646,138.85053924569604,137.92862808366573,138.75140380859375,220000,0.0,0.0
2024-03-21 00:00:00-04:00,139.08841825193014,140.3671956103983,138.08721704857123,139.91119384765625,255800,0.0,0.0
2024-03-22 00:00:00-04:00,140.77361081986902,141.20978246160044,139.8219773524016,140.35726928710938,276000,0.0,0.0
2024-03-25 00:00:00-04:00,139.9706758510705,142.79586911672604,139.9409382483535,141.71536254882812,316300,0.0,0.0
2024-03-26 00:00:00-04:00,141.58648848098767,143.05359899938549,141.3783101375535,141.95326232910156,314200,0.0,0.0
2024-03-27 00:00:00-04:00,142.41915705286345,143.8862674213768,142.41915705286345,143.40054321289062,218200,0.0,0.0
2024-03-28 00:00:00-04:00,143.55916383297742,144.08454829465626,142.39933686940833,142.6372528076172,247800,0.0,0.0
2024-04-01 00:00:00-04:00,142.53811857132533,142.53811857132533,140.88265985977688,141.05117797851562,204400,0.0,0.0
2024-04-02 00:00:00-04:00,140.60509657020089,140.60509657020089,139.16772371206562,139.4056396484375,202600,0.0,0.0
2024-04-03 00:00:00-04:00,139.4452793146353,139.960756260409,138.65224135020063,139.65345764160156,258700,0.0,0.0
2024-04-04 00:00:00-04:00,140.59518971189533,141.5071781165175,139.7426765101487,140.51588439941406,403600,0.0,0.0
2024-04-05 00:00:00-04:00,140.14911948491763,141.51709461595203,139.72285529394162,140.49606323242188,288300,0.0,0.0
2024-04-08 00:00:00-04:00,140.43658653193245,141.14041176380232,139.16773171684926,139.28668212890625,312500,0.0,0.0
2024-04-09 00:00:00-04:00,139.19745233021874,139.8715398767991,138.1466834827859,139.08840942382812,242600,0.0,0.0
2024-04-10 00:00:00-04:00,137.76999877927764,138.99920845355638,137.2446143108546,138.18634033203125,200700,0.0,0.0
2024-04-11 00:00:00-04:00,138.04755907083242,138.8207669683444,137.24461357156548,137.918701171875,265300,0.0,0.0
2024-04-12 00:00:00-04:00,136.9670646336894,137.74027259948474,134.77631377258373,136.00550842285156,299200,0.0,0.0
2024-04-15 00:00:00-04:00,137.40322972923067,138.59277922513755,136.63002180059405,136.99679565429688,319600,0.0,0.0
2024-04-16 00:00:00-04:00,136.5903543367824,138.17643033118634,136.1641052997771,137.38339233398438,281700,0.0,0.0
2024-04-17 00:00:00-04:00,137.6708850056611,138.26565219809098,137.14550051234048,137.19505310058594,565400,0.0,0.0
2024-04-18 00:00:00-04:00,137.1851320847816,138.22599347635693,137.01661397390805,137.89886474609375,246600,0.0,0.0
2024-04-19 00:00:00-04:00,137.84930054424208,138.7018137377263,137.56183202448253,138.12686157226562,276600,0.0,0.0
2024-04-22 00:00:00-04:00,138.33502731615243,139.92108802823105,138.03763620578138,139.09832763671875,298800,0.0,0.0
2024-04-23 00:00:00-04:00,138.55312824028502,139.93102591361165,138.30530480892452,138.9298095703125,417200,0.0,0.0
2024-04-24 00:00:00-04:00,139.13860773601874,140.08309687938592,138.83040745274005,139.19825744628906,559200,0.41,0.0
2024-04-25 00:00:00-04:00,139.0292386706214,140.4310674806865,138.11457442322126,139.3672637939453,694400,0.0,0.0
2024-04-26 00:00:00-04:00,141.17671738557638,147.6489684748245,141.07729109393654,142.49900817871094,489500,0.0,0.0
2024-04-29 00:00:00-04:00,144.05989608090238,147.16181733326363,143.53297011620526,145.5313262939453,676700,0.0,0.0
2024-04-30 00:00:00-04:00,144.89503861467492,145.25295202466614,143.2247709779419,143.5429229736328,585100,0.0,0.0
2024-05-01 00:00:00-04:00,144.1493863720236,146.35651652986462,143.74175981802546,144.53712463378906,359600,0.0,0.0
2024-05-02 00:00:00-04:00,144.914913867979,145.8792912599076,144.44763759888693,145.07398986816406,356500,0.0,0.0
2024-05-03 00:00:00-04:00,146.25708021006977,146.27696850093866,144.00023706156148,145.9588165283203,303300,0.0,0.0
2024-05-06 00:00:00-04:00,146.9033104690389,148.21566464459445,146.30679825586762,148.17588806152344,260200,0.0,0.0
2024-05-07 00:00:00-04:00,147.46008217334202,149.50813634180696,147.46008217334202,148.85195922851562,392900,0.0,0.0
2024-05-08 00:00:00-04:00,148.851952516239,149.99527896212328,148.61333853025974,149.91574096679688,223500,0.0,0.0
2024-05-09 00:00:00-04:00,150.12453415300365,150.8502975207552,147.76827976285352,148.21566772460938,299100,0.0,0.0
2024-05-10 00:00:00-04:00,148.08642917571808,148.13614232465676,147.23141459307158,147.6291046142578,186300,0.0,0.0
2024-05-13 00:00:00-04:00,147.66885717155736,148.6133462634333,146.00854125481663,147.01268005371094,167500,0.0,0.0
2024-05-14 00:00:00-04:00,147.4401857000379,147.4501222604799,146.61499607371425,147.04249572753906,137600,0.0,0.0
2024-05-15 00:00:00-04:00,147.102167082445,147.47995361006247,145.91906401390577,146.4261016845703,211100,0.0,0.0
2024-05-16 00:00:00-04:00,146.51557301812144,147.042498969268,145.58102052504745,146.68458557128906,235500,0.0,0.0
2024-05-17 00:00:00-04:00,146.99279178758786,147.31092858235036,146.27696503647144,146.81382751464844,169500,0.0,0.0
2024-05-20 00:00:00-04:00,146.73430448574354,147.54955760165925,146.1874902214491,147.31094360351562,163400,0.0,0.0
2024-05-21 00:00:00-04:00,147.08227500823682,147.81797492279415,146.2371970752046,147.72850036621094,280400,0.0,0.0
2024-05-22 00:00:00-04:00,147.21152602409944,147.96711422959115,146.61499864007018,147.92733764648438,283300,0.0,0.0
2024-05-23 00:00:00-04:00,147.7981084397933,148.0864204140624,146.7044799091405,146.86355590820312,171700,0.0,0.0
2024-05-24 00:00:00-04:00,147.61915308465808,147.96712995738272,146.50565136445627,147.23141479492188,162300,0.0,0.0
2024-05-28 00:00:00-04:00,146.76413330685176,146.92320930991465,144.9745813685235,145.8594207763672,318400,0.0,0.0
2024-05-29 00:00:00-04:00,144.8055608458342,145.84947630873282,143.67217081562745,144.00025939941406,229700,0.0,0.0
2024-05-30 00:00:00-04:00,144.28858574012926,146.1278509067867,144.15933458565246,145.292724609375,328100,0.0,0.0
2024-05-31 00:00:00-04:00,145.24299539146205,146.97291267642265,145.07398283832615,146.83372497558594,358900,0.0,0.0
2024-06-03 00:00:00-04:00,147.6390352585539,147.6390352585539,145.43190503298203,147.30101013183594,266200,0.0,0.0
2024-06-04 00:00:00-04:00,146.79394812461462,147.52966321073654,145.84945907277913,147.33082580566406,287900,0.0,0.0
2024-06-05 00:00:00-04:00,146.86355577498975,147.34076860142255,146.2272669496386,147.06239318847656,229200,0.0,0.0
2024-06-06 00:00:00-04:00,147.15185656875352,147.15185656875352,144.55698831854846,145.11375427246094,197600,0.0,0.0
2024-06-07 00:00:00-04:00,144.92485667565106,145.48160747169428,144.60670469487127,144.7061309814453,179100,0.0,0.0
2024-06-10 00:00:00-04:00,143.99030717125453,144.96462108446894,143.15518095992786,144.7458953857422,125800,0.0,0.0
2024-06-11 00:00:00-04:00,144.069842198694,144.8950318322786,143.51309140261802,144.6564178466797,147700,0.0,0.0
2024-06-12 00:00:00-04:00,145.39213888233263,145.4617251495329,143.234721873972,144.98451232910156,221300,0.0,0.0
2024-06-13 00:00:00-04:00,145.04416203536522,145.68045085271436,144.17921095389806,144.98451232910156,232400,0.0,0.0
2024-06-14 00:00:00-04:00,144.2487917043436,144.53711883402036,142.84696297947195,143.9107666015625,141500,0.0,0.0
2024-06-17 00:00:00-04:00,144.03007123818756,145.82957483514926,143.7318227074485,145.4816131591797,303800,0.0,0.0
2024-06-18 00:00:00-04:00,145.63073417824452,146.83372551658982,145.62079761754873,145.8395233154297,219900,0.0,0.0
2024-06-20 00:00:00-04:00,145.8097081220493,146.67465923985355,144.82544241638323,144.96463012695312,199900,0.0,0.0
2024-06-21 00:00:00-04:00,145.02426713243977,146.28690814864567,144.46751633892825,145.99859619140625,444100,0.0,0.0
2024-06-24 00:00:00-04:00,146.3664553693474,147.37059417305838,145.81964110185237,145.86935424804688,182900,0.0,0.0
2024-06-25 00:00:00-04:00,145.93892924098893,145.94888097165233,143.66221295627713,144.02012634277344,194500,0.0,0.0
2024-06-26 00:00:00-04:00,143.4136783501354,143.9505409043724,142.13116408870536,142.87681579589844,192400,0.0,0.0
2024-06-27 00:00:00-04:00,143.03587341308594,143.04582514463127,141.4451589090506,143.03587341308594,377300,0.0,0.0
2024-06-28 00:00:00-04:00,142.9463882562167,143.48326592890723,139.27777978400968,139.9936065673828,435100,0.0,0.0
2024-07-01 00:00:00-04:00,140.56031649992028,140.65972762098727,137.58764636312122,137.7367706298828,306400,0.0,0.0
2024-07-02 00:00:00-04:00,137.6771168664537,139.6854095648267,136.96129006644594,139.5859832763672,259400,0.0,0.0
2024-07-03 00:00:00-04:00,140.063219987868,140.58019424318394,139.75501971288125,140.4012451171875,143300,0.0,0.0
2024-07-05 00:00:00-04:00,140.17258910255097,140.61997710784055,138.91988448335212,140.08309936523438,207000,0.0,0.0
2024-07-08 00:00:00-04:00,140.8287476496575,141.67382566032194,140.67962337498633,140.68955993652344,249300,0.0,0.0
2024-07-09 00:00:00-04:00,140.04332622757835,140.45095278130893,138.93976114938218,139.2280731201172,238400,0.0,0.0
2024-07-10 00:00:00-04:00,139.93396267066512,140.808865480054,139.75501355255665,140.4708251953125,142000,0.0,0.0
2024-07-11 00:00:00-04:00,140.38135020760953,142.46918093443176,139.93396224338247,141.2661895751953,244500,0.0,0.0
2024-07-12 00:00:00-04:00,142.5785575352512,144.64650016944287,142.5785575352512,143.751708984375,263900,0.0,0.0
2024-07-15 00:00:00-04:00,143.92070998156234,144.8453259480649,142.31010721643665,142.59841918945312,319900,0.0,0.0
2024-07-16 00:00:00-04:00,143.01600293382853,144.45759319455206,143.01600293382853,143.7218780517578,178800,0.0,0.0
2024-07-17 00:00:00-04:00,143.50313696887406,144.92485395451703,143.50313696887406,144.02012634277344,242300,0.0,0.0
2024-07-18 00:00:00-04:00,143.77158413178512,146.39627739473178,143.7616475708671,145.43190002441406,434200,0.0,0.0
2024-07-19 00:00:00-04:00,145.74009743474508,145.74009743474508,143.82129446289454,145.0938720703125,251200,0.0,0.0
2024-07-22 00:00:00-04:00,145.14359967477395,146.7044894018996,144.40788450924526,146.33663940429688,235700,0.0,0.0
2024-07-23 00:00:00-04:00,147.01267493335766,147.64896373659573,144.82543312037194,145.1932830810547,234500,0.0,0.0
2024-07-24 00:00:00-04:00,145.22312418531487,145.77987499600405,143.06569203841158,143.30430603027344,250600,0.0,0.0
2024-07-25 00:00:00-04:00,142.4466137172535,143.66334017802635,140.84093471363238,141.11021423339844,558100,0.45,0.0
2024-07-26 00:00:00-04:00,142.7458185274977,150.8839040725973,141.9679134034649,146.26634216308594,562800,0.0,0.0
2024-07-29 00:00:00-04:00,146.18654807363913,147.9518012557539,144.78032917910988,147.4032745361328,390900,0.0,0.0
2024-07-30 00:00:00-04:00,146.98440955393974,147.50300282044066,145.01969618270712,145.35877990722656,411000,0.0,0.0
2024-07-31 00:00:00-04:00,146.10677238813136,148.4504707285892,145.0197017612093,146.58547973632812,280600,0.0,0.0
2024-08-01 00:00:00-04:00,146.48575417142177,149.13860271713426,145.03963404176758,146.63534545898438,335300,0.0,0.0
2024-08-02 00:00:00-04:00,146.1865607027143,146.60543153811187,143.36415499050057,145.2989501953125,213500,0.0,0.0
2024-08-05 00:00:00-04:00,143.04500195071893,143.04500195071893,139.10560747243943,140.30238342285156,448500,0.0,0.0
2024-08-06 00:00:00-04:00,140.9506421425725,145.69785981497913,140.7312314517885,144.5409698486328,476000,0.0,0.0
2024-08-07 00:00:00-04:00,145.61807332642232,146.86471806655007,143.08489791032852,143.2145538330078,353600,0.0,0.0
2024-08-08 00:00:00-04:00,144.07225793334294,145.76769187651146,144.07225793334294,145.16929626464844,268600,0.0,0.0
2024-08-09 00:00:00-04:00,145.01970173177108,145.01970173177108,143.08490654350197,143.56361389160156,263200,0.0,0.0
2024-08-12 00:00:00-04:00,143.58356293459363,143.7929907393466,142.38678696822322,142.90538024902344,221100,0.0,0.0
2024-08-13 00:00:00-04:00,143.12479067928683,144.9099945543652,142.71590275055541,143.98248291015625,212000,0.0,0.0
2024-08-14 00:00:00-04:00,143.74314177678474,144.42130926648593,143.10486022619372,143.5137481689453,115700,0.0,0.0
2024-08-15 00:00:00-04:00,144.61078772865739,146.94450299558522,144.61078772865739,146.61538696289062,277500,0.0,0.0
2024-08-16 00:00:00-04:00,145.7178086429149,146.4458448984164,145.21915075490517,146.326171875,250600,0.0,0.0
2024-08-19 00:00:00-04:00,145.9272513224637,147.33345499792665,145.52831588225743,146.57550048828125,191200,0.0,0.0
2024-08-20 00:00:00-04:00,146.58547636304425,147.91190824245643,146.58547636304425,147.7124481201172,387200,0.0,0.0
2024-08-21 00:00:00-04:00,147.77227873284713,149.16852996911774,147.06419304414976,148.92916870117188,267300,0.0,0.0
2024-08-22 00:00:00-04:00,149.16853288609883,149.99629161604025,148.27093952712292,148.590087890625,200400,0.0,0.0
2024-08-23 00:00:00-04:00,149.25828872832403,150.1259486188488,149.03887803129888,150.03619384765625,221400,0.0,0.0
2024-08-26 00:00:00-04:00,150.27553600322852,152.26019990468,149.7369921722213,149.75694274902344,235500,0.0,0.0
2024-08-27 00:00:00-04:00,149.6073354575319,151.133227391442,149.4377936001898,150.7941436767578,208300,0.0,0.0
2024-08-28 00:00:00-04:00,150.5248764586845,151.56209348205394,150.5248764586845,151.13323974609375,249000,0.0,0.0
2024-08-29 00:00:00-04:00,152.14052586050624,152.49956015138338,150.8041263625091,151.87124633789062,187100,0.0,0.0
2024-08-30 00:00:00-04:00,151.79146048136437,153.0281375417213,151.23296607276166,152.77880859375,178500,0.0,0.0
2024-09-03 00:00:00-04:00,151.7017037750138,151.97098329637666,149.32808735093408,149.6372528076172,362400,0.0,0.0
2024-09-04 00:00:00-04:00,149.19845240971176,150.49495079841,149.19845240971176,150.32540893554688,175800,0.0,0.0
2024-09-05 00:00:00-04:00,150.67447925817638,151.35264672627906,149.54750748684052,150.31544494628906,200600,0.0,0.0
2024-09-06 00:00:00-04:00,149.9763613557829,152.70899702647708,149.9763613557829,151.9709930419922,319100,0.0,0.0
2024-09-09 00:00:00-04:00,152.16047510581276,152.64915009618142,151.03350341028641,151.5022430419922,241500,0.0,0.0
2024-09-10 00:00:00-04:00,151.46235157142956,152.37988031700135,151.03351306529763,151.1033172607422,158100,0.0,0.0
2024-09-11 00:00:00-04:00,150.38525079268496,150.4750207850162,148.23106011554742,150.43511962890625,178000,0.0,0.0
2024-09-12 00:00:00-04:00,150.4849887540154,151.60197764192228,149.56745999354442,151.5521240234375,200400,0.0,0.0
2024-09-13 00:00:00-04:00,151.78149156962914,152.5992825990635,151.492261470345,151.87124633789062,138600,0.0,0.0
2024-09-16 00:00:00-04:00,152.62921458132197,152.7588705145806,151.66183218445363,152.57936096191406,182900,0.0,0.0
2024-09-17 00:00:00-04:00,153.5866296991098,155.15242277397783,151.46234222382526,152.61923217773438,259900,0.0,0.0
2024-09-18 00:00:00-04:00,153.3472690170848,155.07263627515385,152.30009962123864,152.6591339111328,214200,0.0,0.0
2024-09-19 00:00:00-04:00,154.60390786200904,158.38372825071872,154.60390786200904,156.47885131835938,412400,0.0,0.0
2024-09-20 00:00:00-04:00,155.8904363617549,155.8904363617549,154.06534655021557,155.49151611328125,663300,0.0,0.0
2024-09-23 00:00:00-04:00,155.75080963595366,156.48882882047508,154.32465531926172,155.5413818359375,315800,0.0,0.0
2024-09-24 00:00:00-04:00,155.7607751810832,156.65836853663214,155.61118389740747,156.20957946777344,246200,0.0,0.0
2024-09-25 00:00:00-04:00,156.87777486028946,157.44623694025017,155.4516053850471,156.71820068359375,284100,0.0,0.0
2024-09-26 00:00:00-04:00,157.5160583780924,158.6330471936873,157.2766971099658,157.9548797607422,371600,0.0,0.0
2024-09-27 00:00:00-04:00,158.25407181382246,161.11637865217875,157.83520098285544,159.46083068847656,354300,0.0,0.0
2024-09-30 00:00:00-04:00,158.86243164794053,159.98940340400793,158.50339734091747,159.76002502441406,289800,0.0,0.0
2024-10-01 00:00:00-04:00,160.10908102182546,160.10908102182546,158.62309013398428,159.54061889648438,192200,0.0,0.0
2024-10-02 00:00:00-04:00,159.4309042020019,159.6802331516974,157.53601027144867,158.32388305664062,186900,0.0,0.0
2024-10-03 00:00:00-04:00,157.56593495409092,160.02930629497408,156.21955248369235,158.5133819580078,367000,0.0,0.0
2024-10-04 00:00:00-04:00,159.51069006003982,161.0365820029643,158.90232681876836,160.1489715576172,350500,0.0,0.0
2024-10-07 00:00:00-04:00,158.96217139030824,159.21150035071827,157.58587065913858,158.26405334472656,223300,0.0,0.0
2024-10-08 00:00:00-04:00,157.85514229856898,158.59316146287298,156.67831696887936,158.2440948486328,205900,0.0,0.0
2024-10-09 00:00:00-04:00,157.92496457453083,159.62039840768432,157.69557098143002,159.27133178710938,152600,0.0,0.0
2024-10-10 00:00:00-04:00,157.62577532209792,158.9522072471334,157.62577532209792,158.79263305664062,168500,0.0,0.0
2024-10-11 00:00:00-04:00,160.50801550631274,161.48538077936988,159.91960280646023,161.1163787841797,194400,0.0,0.0
2024-10-14 00:00:00-04:00,164.5471496015545,167.3097035833241,163.02125754964115,166.74124145507812,469700,0.0,0.0
2024-10-15 00:00:00-04:00,166.8708837749407,169.2045990501098,166.0431098506034,168.2272186279297,397300,0.0,0.0
2024-10-16 00:00:00-04:00,168.2471783490178,168.74583626660103,165.47464154468156,165.5943145751953,330000,0.0,0.0
2024-10-17 00:00:00-04:00,166.53178529804745,167.86820001373155,166.07302855953967,167.43934631347656,238200,0.0,0.0
2024-10-18 00:00:00-04:00,168.64610780732278,168.64610780732278,167.32964364723057,168.1773681640625,171500,0.0,0.0
2024-10-21 00:00:00-04:00,168.01780020340925,168.0377507811335,165.85362666420463,165.883544921875,217900,0.0,0.0
2024-10-22 00:00:00-04:00,165.27517443013002,165.92342360843475,164.3676134062384,165.36492919921875,228500,0.0,0.0
2024-10-23 00:00:00-04:00,166.06305748263202,167.52911300642305,165.71400606419698,167.1999969482422,318100,0.0,0.0
2024-10-24 00:00:00-04:00,168.32000732421875,168.3300018310547,166.14999389648438,166.5500030517578,547300,0.45,0.0
2024-10-25 00:00:00-04:00,168.9199981689453,169.85000610351562,164.61000061035156,168.91000366210938,518900,0.0,0.0
2024-10-28 00:00:00-04:00,169.89999389648438,171.41000366210938,168.75999450683594,169.10000610351562,350000,0.0,0.0
2024-10-29 00:00:00-04:00,169.02999877929688,169.49000549316406,167.63999938964844,168.6999969482422,338100,0.0,0.0
2024-10-30 00:00:00-04:00,168.35000610351562,170.1999969482422,168.1199951171875,169.02999877929688,290300,0.0,0.0
2024-10-31 00:00:00-04:00,169.08999633789062,170.27999877929688,167.86000061035156,167.91000366210938,329900,0.0,0.0
2024-11-01 00:00:00-04:00,168.10000610351562,170.99000549316406,167.6199951171875,169.41000366210938,316300,0.0,0.0
2024-11-04 00:00:00-05:00,169.6300048828125,170.57000732421875,168.17999267578125,168.25999450683594,191800,0.0,0.0
2024-11-05 00:00:00-05:00,167.74000549316406,170.36000061035156,167.74000549316406,170.30999755859375,206200,0.0,0.0
2024-11-06 00:00:00-05:00,175.14999389648438,175.14999389648438,172.13999938964844,173.16000366210938,264100,0.0,0.0
2024-11-07 00:00:00-05:00,174.1999969482422,175.4600067138672,173.5399932861328,174.7100067138672,412300,0.0,0.0
2024-11-08 00:00:00-05:00,174.6999969482422,177.83999633789062,174.49000549316406,175.75999450683594,309200,0.0,0.0
2024-11-11 00:00:00-05:00,176.32000732421875,178.02999877929688,175.89999389648438,176.14999389648438,189100,0.0,0.0
2024-11-12 00:00:00-05:00,176.64999389648438,176.9149932861328,174.9499969482422,175.6999969482422,179781,0.0,0.0
